timestamp,world_index,world_index_corrected,emg0,emg1,emg2,emg3,emg4,emg5,emg6,emg7,moving
0.003833112,0,0,48,110,178,84,33,29,27,27,0
0.018869305,0,0,45,102,182,87,35,33,28,28,0
0.041359724,1,1,38,94,201,95,36,32,28,27,0
0.063851378,2,2,41,107,188,86,36,30,26,29,0
0.078774168,2,2,43,115,205,92,35,31,27,27,0
0.101290211,3,3,44,113,252,110,38,30,25,29,0
0.123692338,3,3,38,106,281,114,37,26,25,26,0
0.138828821,4,4,44,118,271,110,35,25,24,29,0
0.161319589,5,5,43,114,274,113,35,25,25,27,0
0.193033448,5,5,44,115,306,120,38,25,26,31,0
0.198939066,6,6,40,116,263,102,36,25,26,27,0
0.221346079,6,6,45,128,226,90,33,26,30,27,0
0.243713576,7,7,40,116,228,91,36,28,31,26,0
0.258895196,7,7,38,110,219,87,34,29,30,24,0
0.281214405,8,8,34,97,164,68,30,29,27,22,0
0.303726053,9,9,33,92,180,74,30,29,27,22,0
0.318695028,9,9,29,74,183,85,30,29,23,23,0
0.341338656,10,10,32,85,187,89,30,29,23,25,0
0.363865675,11,11,42,89,199,92,31,29,23,26,0
0.386258316,11,11,43,90,215,102,30,31,23,24,0
0.401156025,12,12,45,84,199,99,31,31,23,29,0
0.423782733,12,12,49,90,196,93,29,29,20,28,0
0.438856912,13,13,47,83,228,101,29,28,21,27,0
0.461404553,13,13,42,85,245,103,27,28,21,26,0
0.483719400,14,14,44,94,245,101,29,24,22,26,0
0.498665821,15,15,42,98,242,100,28,27,21,24,0
0.521209411,15,15,37,95,258,111,37,28,22,25,0
0.543753361,16,16,37,92,237,98,36,28,21,26,0
0.559504572,16,16,37,87,207,92,37,28,22,25,0
0.581197989,17,17,34,85,180,82,36,30,23,25,0
0.603887130,18,18,34,82,187,83,34,28,24,24,0
0.618722376,18,18,34,81,219,86,29,28,24,23,0
0.641370617,18,19,34,81,206,84,29,29,25,23,0
0.663858888,18,19,35,79,211,86,32,30,25,24,0
0.686352981,18,20,35,65,247,101,34,30,23,24,0
0.701275396,18,21,35,58,248,101,36,29,23,25,0
0.723786962,18,21,42,86,200,84,38,32,24,27,0
0.746276529,18,22,47,89,190,81,38,32,22,27,0
0.761755980,18,22,46,91,240,92,36,30,23,26,0
0.783858857,18,23,49,98,239,104,39,32,28,32,0
0.806761045,19,24,49,104,277,132,42,34,31,32,0
0.821393370,19,24,50,88,300,143,43,38,34,30,0
0.843978814,19,25,69,86,302,144,44,38,35,32,0
0.866473938,19,26,87,99,259,135,45,39,34,35,0
0.881921291,19,26,86,105,234,120,41,36,32,30,0
0.911994024,19,27,86,113,199,95,41,35,30,28,0
0.926456618,19,27,85,110,214,84,39,29,26,28,0
0.949765253,19,28,69,111,212,82,37,27,27,26,0
0.963806713,19,28,45,105,218,84,36,27,27,22,0
0.986942670,20,29,45,98,247,89,41,29,28,24,0
1.003808942,21,30,49,104,239,92,38,28,25,25,0
1.023919783,21,30,43,98,196,85,38,30,26,25,0
1.046308351,22,31,47,105,196,87,39,30,24,26,0
1.061250813,22,31,49,106,187,84,39,30,23,25,0
1.083653287,23,32,48,111,151,77,32,29,21,24,0
1.106978354,24,33,45,113,156,68,31,28,22,23,0
1.121433599,24,33,47,128,152,67,25,24,20,21,0
1.143776922,25,34,44,142,156,67,25,25,20,20,0
1.166099814,25,34,43,138,194,77,26,24,21,22,0
1.181332687,26,35,43,134,196,78,29,23,22,22,0
1.203792768,27,36,42,131,190,77,28,23,22,22,0
1.226331845,27,36,40,122,204,80,32,25,24,23,0
1.241953608,28,37,38,105,227,95,37,26,25,25,0
1.263705629,28,37,34,102,202,94,80,25,23,25,0
1.286245206,29,38,33,101,189,92,85,27,22,25,0
1.301288465,29,38,41,96,205,97,87,26,21,27,0
1.323867944,30,39,49,87,209,101,87,28,21,28,0
1.346586202,31,40,50,82,203,91,87,27,21,27,0
1.361232561,31,40,52,89,219,99,52,29,23,28,0
1.383876358,32,41,53,96,229,96,45,28,22,27,0
1.414591432,33,42,46,91,242,105,44,30,23,26,0
1.421417234,33,42,39,93,259,107,44,27,24,25,0
1.444011911,34,43,45,117,253,109,42,30,25,23,0
1.466327520,34,43,51,116,245,100,38,29,24,24,0
1.481248148,35,44,53,114,237,99,39,29,24,25,0
1.503684649,36,45,52,114,215,81,35,27,23,23,0
1.526379327,36,45,55,119,202,85,36,31,24,26,0
1.541840771,37,46,50,100,193,82,37,31,22,28,0
1.563843383,37,46,43,95,201,84,37,31,25,26,0
1.586289171,38,47,49,92,247,99,35,31,25,26,0
1.609000917,39,48,51,84,246,100,35,31,24,27,0
1.623817916,39,48,49,75,226,91,34,30,23,25,0
1.646886174,40,49,50,67,238,94,34,28,25,27,0
1.668997510,40,49,53,68,234,93,33,27,23,27,0
1.691863622,41,50,50,67,201,76,33,30,23,27,0
1.706705368,42,51,54,71,188,72,36,34,25,28,0
1.728788076,42,51,56,71,188,68,34,31,25,31,0
1.746070126,43,52,57,89,177,67,32,30,22,29,0
1.766275617,43,52,53,88,159,61,31,29,23,28,0
1.788718022,44,53,53,95,248,104,35,27,23,27,0
1.803822476,45,54,52,95,261,108,31,20,23,26,0
1.826236069,45,54,57,96,278,117,32,22,23,26,0
1.848799994,46,55,53,78,284,116,35,24,22,24,0
1.863788266,46,55,53,81,299,123,37,26,23,24,0
1.886342727,47,56,47,63,213,88,32,26,23,22,0
1.909339110,48,57,43,60,201,87,32,27,24,25,0
1.923843928,48,57,29,58,184,79,30,26,22,22,0
1.946170691,49,58,36,83,171,74,28,25,25,23,0
1.969891597,49,58,38,86,154,74,28,28,24,25,0
1.983650518,50,59,38,89,198,80,31,27,24,26,0
2.006267261,50,59,38,94,231,96,32,28,24,24,0
2.028822468,51,60,39,101,226,92,35,29,26,25,0
2.044404169,52,61,35,93,235,96,34,28,24,24,0
2.066514582,52,61,40,93,250,97,32,24,23,24,0
2.088903556,53,62,40,93,230,96,30,24,22,25,0
2.103764887,53,62,42,100,255,101,35,28,22,28,0
2.134433286,54,63,41,94,261,105,34,27,20,26,0
2.149013271,55,64,41,93,248,102,38,30,20,26,0
2.166163798,55,64,34,97,232,92,39,30,21,24,0
2.186366056,56,65,40,107,267,105,45,34,24,25,0
2.208889699,57,66,37,95,210,84,41,29,22,22,0
2.227081857,57,66,45,110,208,81,42,29,25,23,0
2.250183543,58,67,45,111,214,78,39,29,26,24,0
2.269432256,58,67,49,109,260,106,40,33,24,24,0
2.283895756,59,68,46,99,224,95,33,29,23,23,0
2.306218339,59,68,46,99,235,97,36,29,25,24,0
2.337236292,60,69,40,82,245,103,34,31,23,23,0
2.352796741,61,70,43,81,275,113,36,29,25,23,0
2.366208711,61,70,44,84,238,100,38,27,26,24,0
2.388802932,62,71,62,114,240,102,40,31,28,27,0
2.403820716,62,71,67,114,235,99,37,32,27,30,0
2.426746001,63,72,69,128,219,93,39,31,28,31,0
2.449073390,64,73,68,128,178,84,38,31,25,30,0
2.463651505,64,73,66,128,179,82,36,29,26,30,0
2.486223944,65,74,66,103,177,82,36,28,32,64,0
2.509069962,66,75,70,101,164,81,36,28,34,80,0
2.526316038,66,75,84,89,170,82,37,29,40,121,0
2.546165934,67,76,84,83,194,84,35,29,42,124,0
2.568813675,67,76,88,90,218,82,34,29,42,129,0
2.591927565,68,77,80,94,217,80,32,30,37,116,0
2.606681798,68,77,74,98,228,85,35,36,39,109,0
2.629474707,69,78,57,100,227,89,34,34,31,64,0
2.651884462,70,79,55,107,211,86,39,37,31,58,0
2.666527895,70,79,50,105,201,84,39,41,33,50,0
2.688972218,71,80,47,95,189,82,42,44,35,51,0
2.711870814,72,81,48,95,197,81,44,42,34,44,0
2.726240256,72,81,52,99,195,77,44,42,35,42,0
2.757295743,73,82,48,84,192,75,41,46,38,42,0
2.771967720,73,82,47,76,157,65,43,44,40,42,0
2.787020337,74,83,44,79,159,65,42,43,36,39,0
2.809024317,74,83,39,77,143,62,40,45,35,35,0
2.831644708,75,84,30,60,160,63,42,48,36,33,0
2.854388874,76,85,31,61,171,73,44,44,35,34,0
2.869279602,76,85,31,58,191,83,43,44,34,32,0
2.891328585,77,86,30,57,183,80,41,42,35,30,0
2.917112099,78,87,29,54,181,78,40,42,35,30,0
2.937510462,78,87,27,51,156,75,37,41,34,28,0
2.959427216,79,88,29,51,160,70,36,41,30,29,0
2.966184397,79,88,29,63,179,67,33,38,27,26,0
2.988901934,80,89,31,65,191,85,37,44,31,30,0
3.019848356,81,90,32,68,189,86,37,42,34,32,0
3.034523769,81,90,34,72,199,92,37,41,33,33,0
3.048852417,82,91,35,76,208,99,43,44,35,30,0
3.079332591,83,92,36,90,175,96,43,47,35,34,0
3.086237323,83,92,36,94,176,86,42,41,35,34,0
3.108732791,83,92,37,98,171,83,42,37,31,31,0
3.131780244,84,93,35,98,179,75,45,36,33,32,0
3.146140491,85,94,34,96,152,61,37,29,31,33,0
3.168852366,85,94,31,74,145,56,36,25,32,31,0
3.191247679,86,95,35,71,131,52,36,24,32,39,0
3.206623808,86,95,33,61,168,59,36,28,32,39,0
3.229002908,87,96,34,56,154,63,35,30,33,40,0
3.251336326,88,97,38,64,218,103,38,35,37,44,0
3.266173488,88,97,38,74,223,103,37,35,36,43,0
3.288670248,89,98,35,73,231,111,37,37,34,33,0
3.311179176,90,99,36,84,225,112,36,39,37,35,0
3.326323004,90,99,41,94,223,111,34,37,34,33,0
3.357510773,91,100,40,92,188,94,35,36,35,33,0
3.371150713,91,100,39,82,184,94,37,39,36,34,0
3.386151690,92,101,40,86,190,88,38,38,36,35,0
3.409234838,92,101,40,78,173,93,40,36,36,36,0
3.431291523,93,102,42,78,184,102,45,38,37,39,0
3.446370006,94,103,45,77,159,85,44,40,31,36,0
3.468774451,94,103,49,84,180,95,44,39,30,37,0
3.491243121,95,104,52,88,176,113,46,43,33,38,0
3.506942801,95,104,56,133,180,110,46,44,29,36,0
3.529232055,96,105,54,154,166,101,45,42,27,32,0
3.551170939,97,106,52,168,169,111,50,45,33,34,0
3.574509289,97,106,53,176,189,132,58,48,35,33,0
3.588810585,98,107,52,174,196,130,62,48,35,33,0
3.611456259,98,107,49,144,188,129,62,47,36,32,0
3.635012103,99,108,47,117,208,138,62,50,39,33,0
3.648993323,99,108,43,95,221,139,58,48,37,30,0
3.672403453,100,109,38,76,204,123,53,47,38,29,0
3.696457589,101,110,34,66,201,111,46,44,36,28,0
3.708855463,101,110,41,86,205,112,49,46,37,31,0
3.739843500,102,111,39,90,187,100,49,48,36,32,0
3.754395700,103,112,40,89,191,102,48,47,38,30,0
3.768780339,103,112,40,83,173,89,49,43,34,28,0
3.797624316,104,113,39,89,156,83,49,44,36,29,0
3.814602675,105,114,32,67,148,78,46,43,35,29,0
3.828829739,105,114,32,70,148,85,53,44,33,29,0
3.851379605,106,115,36,90,154,74,52,42,32,32,0
3.874823767,106,115,35,95,163,85,52,44,36,32,0
3.888806172,107,116,35,94,209,97,51,40,33,30,0
3.911525867,107,116,43,124,224,100,55,41,33,31,0
3.941966459,108,117,43,123,226,92,47,36,33,31,0
3.948772165,109,118,39,111,202,94,47,35,31,30,0
3.971394546,109,118,40,106,203,89,42,34,29,32,0
3.994313969,110,119,39,125,165,83,42,39,30,33,0
4.009226563,110,119,29,96,161,89,42,43,34,34,0
4.031197313,111,120,30,92,157,91,39,42,32,32,0
4.054861139,112,121,30,96,172,91,40,42,32,33,0
4.068836022,112,121,32,110,203,96,40,44,30,31,0
4.091310116,113,122,33,89,206,96,38,41,33,30,0
4.114392574,113,122,35,92,214,93,35,38,30,28,0
4.128817719,114,123,39,101,244,96,37,50,37,30,0
4.151492728,115,124,39,101,235,88,35,51,36,29,0
4.174302967,115,124,38,94,234,103,42,51,40,31,0
4.191304981,116,125,35,107,236,100,42,53,37,31,0
4.211884737,116,125,37,110,233,100,41,56,41,35,0
4.241925114,117,126,36,114,205,95,41,47,38,34,0
4.248849471,118,127,36,115,211,101,41,46,37,34,0
4.271311704,118,127,36,113,184,77,36,43,34,32,0
4.293785148,119,128,39,106,193,78,42,44,35,31,0
4.309593797,119,128,36,114,185,78,41,42,34,25,0
4.331324471,120,129,33,101,188,83,42,42,30,22,0
4.353718262,121,130,33,103,169,79,44,45,35,22,0
4.369410865,121,130,45,104,231,100,46,45,36,27,0
4.391837632,122,131,59,108,229,98,41,44,38,34,0
4.413843765,122,131,58,97,223,94,41,41,34,34,0
4.428863473,123,132,63,100,226,94,42,41,35,35,0
4.451886620,124,133,68,112,242,95,41,38,35,35,0
4.476024157,124,133,59,113,189,72,37,37,37,33,0
4.498370498,125,134,70,101,174,74,39,35,35,27,0
4.511742507,125,134,73,113,185,77,41,37,37,30,0
4.534201382,126,135,70,123,200,89,41,39,37,30,0
4.556981867,127,136,67,107,191,85,48,43,36,32,0
4.571286517,127,136,67,107,198,84,52,43,35,32,0
4.593994351,128,137,45,114,191,79,53,43,36,37,0
4.618394710,128,137,39,111,182,80,53,42,35,35,0
4.631156933,129,138,39,101,177,67,50,40,36,36,0
4.654033395,130,139,37,100,172,66,44,35,34,34,0
4.677308359,130,139,37,100,141,63,40,40,33,32,0
4.691335615,131,140,32,93,134,59,39,40,32,24,0
4.713892173,131,140,33,78,129,50,34,42,32,22,0
4.744573844,132,141,31,71,121,50,35,40,33,20,0
4.751829176,132,141,34,78,148,61,36,45,35,21,0
4.774799346,133,142,46,101,189,82,40,41,33,26,0
4.797019242,134,143,46,104,195,82,38,40,36,30,0
4.811274864,134,143,47,116,205,87,42,42,38,34,0
4.833941053,135,144,56,134,199,93,51,48,40,37,0
4.856922645,136,145,57,132,199,93,52,54,41,38,0
4.871416830,136,145,53,123,197,87,51,59,48,39,0
4.901869301,137,146,55,124,203,91,51,58,46,36,0
4.916965756,137,146,55,119,198,92,53,56,46,37,0
4.931452871,138,147,49,120,192,82,46,56,47,37,0
4.953694690,139,148,46,118,174,80,51,56,48,42,0
4.977464232,139,148,40,105,130,67,61,76,52,43,0
4.991436589,140,149,38,101,111,61,68,90,52,43,0
5.021877881,141,150,36,92,108,81,82,101,53,41,0
5.037214156,141,150,31,60,125,102,83,99,53,42,0
5.051401837,141,150,31,62,138,159,81,95,52,35,0
5.075451823,142,151,45,80,172,171,74,78,53,31,0
5.096975560,143,152,53,79,182,192,73,71,55,32,0
5.111679958,143,152,57,81,184,191,57,56,53,32,0
5.133814742,144,153,67,102,185,197,59,60,52,30,0
5.156958860,145,154,73,110,195,157,57,61,51,30,0
5.171670439,145,154,82,107,195,187,62,66,42,34,0
5.193853792,146,155,92,117,212,182,65,64,43,38,0
5.217134459,146,155,103,122,239,179,63,67,42,40,0
5.231273168,147,156,131,108,246,173,59,63,39,43,0
5.253759531,147,156,152,126,275,256,76,68,46,49,0
5.278834062,148,157,169,123,273,235,71,65,45,53,0
5.291309710,149,158,175,126,269,227,70,63,43,69,0
5.313816628,149,158,171,125,272,248,74,66,44,72,0
5.337045636,150,159,156,127,272,256,77,67,43,71,0
5.351229612,150,159,166,111,235,174,64,66,47,70,0
5.374326754,151,160,152,116,221,169,66,64,45,68,0
5.397449418,152,161,166,103,206,182,64,61,46,49,0
5.419666504,152,161,179,101,197,176,66,53,47,47,0
5.442168697,153,162,175,112,220,187,70,54,53,51,0
5.457167096,154,163,151,119,236,217,70,49,53,54,0
5.479816151,154,163,177,117,249,229,74,54,55,60,0
5.493709049,155,164,172,152,273,243,78,64,58,73,0
5.516367630,155,164,167,158,265,237,77,67,59,73,0
5.539811400,156,165,167,161,226,240,74,71,64,73,0
5.553972067,156,166,163,156,206,247,75,73,59,69,0
5.576739238,157,167,129,186,216,241,70,70,57,61,0
5.609488301,158,168,100,165,202,217,64,62,56,47,0
5.613799493,158,168,89,162,192,209,62,63,54,46,0
5.644510181,159,169,93,157,238,214,58,57,46,44,0
5.659764446,160,170,94,162,275,202,60,56,46,43,0
5.674261646,160,170,97,148,291,199,59,53,46,42,0
5.696202469,161,171,122,148,300,205,60,50,42,50,0
5.719379593,161,171,125,153,319,243,69,47,41,48,0
5.733684684,162,172,143,173,305,231,79,50,40,48,0
5.756341508,162,172,234,189,329,226,77,48,46,67,0
5.781786817,163,173,253,177,307,227,78,50,49,68,0
5.793994581,164,174,249,180,329,261,83,54,51,64,0
5.816926494,164,174,263,179,364,275,89,58,54,66,0
5.842278807,165,175,251,166,356,269,85,55,53,67,0
5.853792964,165,175,216,182,309,291,92,61,50,57,0
5.876717243,166,176,202,221,391,328,96,63,52,58,0
5.899456406,167,177,202,246,378,322,96,63,50,57,0
5.921891925,167,177,193,276,403,335,98,63,48,59,0
5.936305162,168,178,245,279,415,334,104,68,50,69,0
5.959846427,168,178,217,268,423,319,98,65,50,73,0
5.974028144,169,179,213,246,375,302,109,67,47,78,0
5.996819195,170,180,233,229,401,299,119,73,55,87,0
6.019525868,170,180,251,206,350,311,109,69,56,87,0
6.033694386,170,181,212,228,338,320,102,67,59,111,0
6.056203617,170,181,211,214,339,360,129,72,61,105,0
6.079569813,171,182,212,212,362,372,120,68,60,105,0
6.093807576,171,182,195,209,320,371,110,62,57,100,0
6.118024554,171,183,207,214,326,356,117,63,56,102,0
6.139696888,171,184,224,177,331,355,117,66,54,67,0
6.161916944,172,184,216,173,321,315,90,63,60,72,0
6.176892082,172,184,217,175,344,313,92,63,67,76,0
6.200199461,172,185,208,163,374,312,88,60,68,75,0
6.213727997,172,185,202,137,378,322,76,63,67,72,0
6.236859556,174,187,180,145,413,314,84,65,65,71,0
6.259375791,174,187,195,151,441,326,79,63,62,78,0
6.274352553,175,188,188,129,377,303,81,68,58,69,0
6.296502772,176,189,196,145,358,290,79,71,57,73,0
6.319490106,176,189,201,148,344,268,94,69,63,75,0
6.334145055,177,190,196,160,309,300,90,67,74,86,0
6.356402512,177,190,184,176,360,282,95,70,75,83,0
6.387096856,178,191,215,195,381,321,92,70,80,88,0
6.402105731,179,192,205,203,376,322,92,68,79,86,0
6.416244860,179,192,178,235,445,324,81,68,77,88,0
6.441954915,180,193,183,236,449,292,79,68,72,93,0
6.463177474,181,194,190,227,418,279,73,63,73,90,0
6.476504597,181,194,160,232,448,218,67,58,70,87,0
6.499585984,182,195,166,226,458,218,66,62,74,87,0
6.522039974,182,195,169,207,441,185,65,65,76,84,0
6.536932279,183,196,164,206,425,182,62,57,70,71,0
6.559454707,183,196,151,211,429,209,69,58,68,83,0
6.582018228,184,197,192,203,387,269,76,62,65,82,0
6.604554313,185,198,197,205,371,275,78,66,62,81,0
6.619550885,185,198,177,188,297,254,75,63,57,83,0
6.642262908,186,199,181,188,381,286,76,66,63,87,0
6.656375203,186,199,210,216,373,277,68,65,57,76,0
6.679500634,187,200,166,213,423,232,67,64,57,75,0
6.701920369,188,201,152,215,429,212,65,55,55,76,0
6.717044776,188,201,195,229,432,221,67,55,57,73,0
6.740010514,189,202,198,255,391,182,70,55,54,67,0
6.762299701,189,202,167,241,364,184,67,60,53,59,0
6.776585840,190,203,168,250,335,219,86,59,50,58,0
6.799906077,191,204,169,252,349,249,94,63,51,55,0
6.829473552,191,204,159,237,347,272,98,72,51,61,0
6.836514286,192,205,157,224,378,307,102,79,53,61,0
6.858706676,192,205,172,221,369,322,110,75,59,72,0
6.881876808,193,206,185,203,349,324,96,70,61,78,0
6.896244809,193,206,195,195,330,320,100,70,62,92,0
6.919310960,194,207,179,220,342,342,107,68,65,94,0
6.945671322,195,208,179,195,286,326,102,58,60,93,0
6.956347389,195,208,171,200,314,337,100,57,56,87,0
6.978940695,196,209,166,210,298,328,101,63,55,81,0
7.002173934,197,210,156,226,296,326,95,61,56,69,0
7.016231781,197,210,167,211,302,327,89,56,53,69,0
7.039073906,198,211,161,233,305,354,85,57,57,67,0
7.062279431,198,211,170,232,274,347,86,58,56,70,0
7.076437721,199,212,174,223,259,346,87,53,59,80,0
7.107191579,200,213,175,215,276,359,98,59,59,85,0
7.122099271,200,213,151,217,252,327,92,54,61,80,0
7.136372334,201,214,149,202,239,298,93,54,62,100,0
7.158989802,201,214,175,198,292,311,96,56,65,116,0
7.182287773,202,215,174,206,323,299,92,59,64,116,0
7.196199010,202,215,174,199,333,290,81,53,63,118,0
7.218747835,203,216,177,215,358,284,76,53,61,119,0
7.242614615,204,217,190,209,389,270,83,52,60,117,0
7.256779676,204,217,187,205,376,228,77,53,59,108,0
7.278764534,205,218,180,234,392,261,77,51,62,107,0
7.301971924,206,219,203,249,386,291,87,57,60,100,0
7.331962496,206,219,208,249,397,309,100,65,61,100,0
7.338945709,207,220,202,259,373,313,98,67,61,94,0
7.362072133,207,220,179,280,363,310,99,68,58,88,0
7.384538692,208,221,180,274,333,287,98,68,55,83,0
7.398828537,208,221,196,252,351,265,92,66,59,93,0
7.422100320,209,222,189,241,379,275,89,65,57,89,0
7.444601616,210,223,178,250,395,311,92,63,60,84,0
7.458772090,210,223,173,217,415,329,87,59,60,82,0
7.481953995,211,224,168,201,431,313,90,61,60,79,0
7.505066425,212,225,114,232,406,290,86,58,55,65,0
7.519531728,212,225,113,220,357,347,90,54,56,63,0
7.542192259,213,226,147,218,391,309,87,56,50,59,0
7.564541399,213,226,165,235,388,288,91,61,49,59,0
7.578648805,214,227,231,251,424,326,99,60,49,72,0
7.602242459,214,227,232,223,429,333,101,60,49,73,0
7.624762993,215,228,247,235,421,246,92,58,48,76,0
7.638859634,216,229,238,218,362,247,95,63,60,84,0
7.662035065,216,229,225,261,375,270,93,64,64,85,0
7.685051665,217,230,164,280,353,239,89,64,62,73,0
7.698744122,217,230,172,301,363,271,99,68,62,76,0
7.723072622,218,231,171,299,398,279,102,68,60,76,0
7.744735781,219,232,177,307,396,305,113,63,48,66,0
7.758816621,219,232,175,275,397,333,124,62,51,75,0
7.782295580,220,233,167,234,346,342,125,62,53,77,0
7.807125087,221,234,166,227,328,329,122,57,52,73,0
7.818826788,221,234,182,262,349,359,123,58,57,71,0
7.841957363,222,235,210,295,360,387,127,59,61,74,0
7.864374066,222,235,218,285,333,357,115,64,58,63,0
7.878783903,223,236,235,280,348,357,111,71,58,64,0
7.902195059,223,236,231,291,358,349,106,71,65,74,0
7.924543723,224,237,213,262,307,357,115,72,66,81,0
7.939093965,225,238,179,243,358,476,122,70,68,83,0
7.961895941,225,238,180,261,335,498,137,78,78,93,0
7.985053795,226,239,169,271,332,503,143,73,82,98,0
7.998950072,226,239,161,244,413,582,153,79,78,94,0
8.022001513,227,240,141,253,397,601,152,86,74,87,0
8.045100496,228,241,140,235,342,525,136,89,75,84,0
8.058806606,228,241,169,223,368,502,119,74,61,94,0
8.082783259,229,242,163,218,363,528,115,77,52,91,0
8.104841018,230,243,188,222,286,444,108,72,55,89,0
8.118725935,230,243,188,214,315,441,105,65,56,93,0
8.141426998,231,244,185,268,364,434,124,66,48,89,0
8.164940508,231,244,150,298,340,442,138,79,52,67,0
8.179160688,232,245,147,342,401,432,142,84,60,66,0
8.201350629,232,245,132,345,399,422,139,85,62,66,0
8.224483470,233,246,148,372,391,377,132,86,63,65,0
8.238900041,234,247,141,338,408,386,128,85,66,68,0
8.269958895,234,247,148,336,432,394,139,76,70,73,0
8.284436108,235,248,165,357,433,469,169,80,75,78,0
8.307625535,236,249,159,382,488,496,179,94,77,78,0
8.321765935,236,249,192,371,508,481,197,101,82,85,0
8.345101062,237,250,198,395,575,524,210,106,83,85,0
8.367597019,237,250,224,387,653,549,208,118,83,89,0
8.381213389,238,251,240,341,643,531,184,115,80,88,0
8.404451764,239,252,239,330,637,524,177,109,77,89,0
8.427183420,239,252,207,316,649,555,168,102,76,83,0
8.441632983,240,253,204,294,571,533,182,107,80,91,0
8.464792839,240,253,180,299,490,534,203,112,94,123,0
8.486804397,241,254,155,323,502,482,206,105,90,122,0
8.501252604,241,254,160,353,641,560,221,109,106,127,0
8.524662046,242,255,164,345,656,537,215,112,107,133,0
8.547125569,243,256,168,388,660,507,209,125,114,130,0
8.561268181,243,256,169,388,685,462,174,111,100,100,0
8.584544846,244,257,183,369,649,448,174,117,105,116,0
8.607911066,245,258,174,326,463,320,155,109,89,110,0
8.632097827,245,258,167,356,413,306,153,107,83,100,0
8.644834039,246,259,161,287,381,262,120,84,73,105,0
8.666921237,246,259,135,246,288,262,137,82,68,96,0
8.681484783,247,260,87,260,311,253,134,84,69,78,0
8.704598314,247,260,85,249,284,251,148,82,71,76,0
8.727020507,248,261,73,206,304,260,172,107,83,76,0
8.742022759,248,261,94,215,337,269,160,103,77,64,0
8.774540635,250,263,103,264,346,290,159,107,77,66,0
8.794407237,250,263,106,270,351,315,188,112,76,59,0
8.801344517,250,263,107,273,364,317,181,113,72,55,0
8.824431503,251,264,109,284,344,311,159,88,56,53,0
8.846934648,252,265,86,298,393,345,184,95,68,60,0
8.861645927,252,265,77,262,380,337,181,89,73,65,0
8.884897505,253,266,73,267,397,316,150,80,64,61,0
8.908671277,254,267,78,267,403,385,167,86,69,64,0
8.921543199,254,267,77,259,385,443,170,87,72,63,0
8.944529683,255,268,77,253,316,441,177,78,61,54,0
8.967325315,255,268,73,282,329,470,193,85,57,46,0
8.981380348,256,269,69,234,323,520,197,101,64,48,0
9.004458975,256,269,75,258,391,531,208,125,81,60,0
9.027045819,257,270,72,255,394,560,231,132,82,65,0
9.049460162,258,271,70,246,387,528,220,147,101,75,0
9.065033782,258,271,78,218,385,500,202,148,101,75,0
9.088012321,259,272,83,218,385,482,227,149,103,79,0
9.101463898,259,272,71,187,304,489,213,140,94,71,0
9.124683696,260,273,72,210,343,400,218,149,100,70,0
9.147031436,261,274,100,226,344,406,230,176,112,82,0
9.170610802,261,274,108,238,381,477,280,203,132,85,0
9.184592267,261,274,118,267,392,454,274,213,140,89,0
9.208380775,262,275,128,291,422,424,287,209,139,91,0
9.230018139,263,276,130,273,383,446,290,216,145,100,0
9.244999348,263,276,115,267,423,474,318,220,135,90,0
9.267490804,264,277,109,255,403,416,361,247,136,97,0
9.289602524,265,278,97,234,374,427,365,239,136,98,0
9.304551177,265,278,86,209,366,378,353,234,135,97,0
9.327224533,266,279,84,213,361,363,334,222,123,86,0
9.349918736,267,280,82,212,359,338,299,190,112,80,0
9.364551643,267,280,74,209,348,339,204,118,92,68,0
9.387702010,268,281,72,202,347,309,216,132,85,66,0
9.410166302,268,281,81,250,313,301,245,141,89,63,0
9.424445829,269,282,84,272,334,352,268,150,88,65,0
9.447440894,270,283,92,278,335,433,287,188,119,82,0
9.469579871,270,283,96,274,334,446,279,189,122,88,0
9.484651033,271,284,100,278,327,462,254,175,116,82,0
9.507151991,271,284,89,233,331,486,224,182,115,87,0
9.530150138,272,285,84,216,347,449,231,210,126,88,0
9.543841388,272,285,68,190,284,365,206,181,107,72,0
9.567707106,273,286,69,208,293,387,233,189,106,70,0
9.589438867,274,287,63,222,346,425,241,181,106,70,0
9.603900610,274,287,77,237,350,435,239,177,103,70,0
9.626928628,275,288,78,218,319,450,234,136,94,68,0
9.649887931,276,289,82,235,313,454,237,144,97,76,0
9.672218386,276,289,80,234,339,427,211,140,99,72,0
9.687112811,277,290,78,218,289,363,199,143,100,72,0
9.710012282,277,290,80,205,291,338,212,137,100,74,0
9.731840283,278,291,81,211,282,337,186,142,100,73,0
9.746972357,279,292,83,196,295,321,180,135,90,68,0
9.769640444,279,292,83,180,259,336,178,122,77,68,0
9.792045025,280,293,97,199,248,346,249,128,75,69,0
9.806973599,280,293,89,211,224,351,254,127,71,58,0
9.837113867,281,294,88,207,270,356,267,120,75,65,0
9.843982174,281,294,89,206,261,357,271,135,76,62,0
9.867281142,282,295,93,211,262,324,268,136,80,66,0
9.890307255,283,296,81,206,254,328,206,131,77,67,0
9.904046272,283,296,89,187,285,300,186,134,90,92,0
9.928036676,284,297,104,185,274,285,181,159,101,108,0
9.949665531,285,298,105,186,272,297,237,182,105,113,0
9.963872295,285,298,117,190,245,277,258,204,119,129,0
9.994669460,286,299,117,186,241,248,258,212,134,136,0
10.009325610,286,299,117,200,295,244,266,225,141,129,0
10.023872631,287,300,121,202,264,234,277,220,137,144,0
10.046840252,288,301,123,206,280,215,243,221,142,155,0
10.069640610,288,301,112,213,296,244,251,214,140,158,0
10.083748971,289,302,129,220,324,308,253,225,141,170,0
10.107636365,289,302,134,211,312,354,302,283,176,187,0
10.129999168,290,303,149,259,320,331,297,294,188,201,0
10.159736946,291,304,173,318,336,334,286,269,180,212,0
10.167209197,291,304,178,318,365,339,298,291,215,227,0
10.189408779,292,305,167,318,356,290,328,298,218,220,0
10.212041367,292,305,161,329,317,264,295,269,194,213,0
10.227961486,293,306,141,311,346,294,294,245,183,188,0
10.249543931,294,307,132,268,325,299,314,278,213,185,0
10.271945632,294,307,123,261,294,328,278,253,190,152,0
10.287581130,295,308,124,253,282,334,256,263,198,155,0
10.309760853,295,308,139,243,281,313,248,246,204,181,0
10.332664115,296,309,138,247,255,303,249,265,220,197,0
10.347011660,296,309,114,239,240,286,233,239,200,196,0
10.369700012,297,310,123,244,236,220,239,245,193,214,0
10.392590267,298,311,126,257,293,216,237,223,179,208,0
10.407299603,298,311,110,258,338,236,243,230,177,179,0
10.429909604,299,312,99,235,356,212,234,219,156,172,0
10.451946899,300,313,112,235,395,229,262,232,176,220,0
10.467028698,300,313,115,229,400,231,276,233,176,221,0
10.490551743,301,314,117,244,391,221,266,225,175,222,0
10.512099479,301,314,117,240,345,210,247,189,160,223,0
10.527169141,302,315,125,262,322,210,232,182,158,233,0
10.549471102,302,315,129,262,363,209,180,165,124,178,0
10.572290735,303,316,121,254,366,220,178,165,119,160,0
10.587077103,303,316,144,257,414,226,184,165,112,163,0
10.609738813,304,317,150,295,489,219,186,179,119,157,0
10.631887858,305,318,160,342,536,295,228,199,129,135,0
10.646987521,305,318,159,359,538,315,242,197,132,127,0
10.669377353,306,319,155,362,541,361,238,198,134,120,0
10.692202328,307,320,158,360,501,385,231,201,136,119,0
10.707231975,307,320,196,357,504,394,225,191,124,117,0
10.737048793,308,321,193,305,497,379,211,172,113,104,0
10.752058867,309,322,192,292,460,353,209,166,106,96,0
10.766956156,309,322,193,300,485,322,212,161,96,93,0
10.789558829,310,323,192,299,496,292,210,145,88,86,0
10.811947673,310,323,162,289,442,279,207,141,86,84,0
10.826558980,311,324,159,297,407,227,193,139,91,80,0
10.849545348,311,324,151,294,427,250,200,148,96,82,0
10.872092081,312,325,155,293,416,242,175,125,91,88,0
10.886316181,313,326,128,274,410,250,160,120,90,85,0
10.909556397,313,326,110,249,403,255,180,124,91,84,0
10.932102517,314,327,97,237,386,255,160,114,80,82,0
10.946431841,314,327,96,222,446,260,137,88,73,75,0
10.969482940,315,328,126,240,461,322,149,92,71,74,0
10.991817636,316,329,133,247,448,377,190,120,75,72,0
11.006450580,316,329,170,284,477,476,243,153,83,83,0
11.030196136,317,330,183,268,547,570,264,158,86,85,0
11.054059018,318,331,214,284,533,585,285,184,113,104,0
11.066212958,318,331,195,268,541,570,281,180,111,96,0
11.089376414,319,332,194,313,558,572,272,175,121,105,0
11.112597466,319,332,162,308,523,496,214,148,116,100,0
11.135182803,320,333,151,317,517,397,213,155,116,98,0
11.149719614,320,333,125,307,499,463,212,142,104,96,0
11.171963958,321,334,130,320,448,446,228,159,112,99,0
11.194742993,322,335,124,277,418,388,228,149,98,89,0
11.210145056,322,335,129,289,462,387,227,150,99,82,0
11.232688853,323,336,131,296,415,394,209,136,91,79,0
11.254564562,324,337,126,329,460,335,180,117,71,67,0
11.269618765,324,337,121,322,486,390,178,106,70,87,0
11.291950021,325,338,125,333,498,413,167,111,80,111,0
11.314686033,325,338,147,392,495,446,171,103,78,115,0
11.329405871,326,339,149,387,507,473,173,99,82,119,0
11.353744007,326,339,160,366,442,443,165,102,83,115,0
11.376527418,327,340,195,373,451,441,166,95,79,109,0
11.391141921,328,341,202,365,469,441,177,84,68,84,0
11.412586537,328,341,213,253,492,432,176,87,70,86,0
11.434579856,329,342,223,243,506,388,173,88,72,85,0
11.456933685,330,343,228,239,492,414,176,86,73,94,0
11.496495212,331,344,211,224,489,367,161,77,65,84,0
11.500346545,331,344,204,229,532,373,146,85,74,89,0
11.509482328,331,344,193,247,577,382,140,80,70,89,0
11.531897954,332,345,187,291,549,387,145,78,64,90,0
11.554477037,332,345,160,290,601,368,152,73,61,77,0
11.568924849,333,346,151,281,599,360,165,86,74,85,0
11.593324207,334,347,154,274,573,341,159,73,66,83,0
11.614543300,334,347,126,254,470,311,164,79,69,82,0
11.629267706,335,348,148,214,544,322,156,76,70,86,0
11.652452282,335,348,177,206,513,301,157,76,69,88,0
11.674558144,336,349,189,218,533,342,134,61,57,79,0
11.688819984,337,350,186,200,505,345,135,68,59,77,0
11.711960264,337,350,182,199,521,354,125,65,59,74,0
11.736876119,338,351,152,224,460,347,134,68,58,61,0
11.757072004,339,352,113,214,465,378,154,88,76,68,0
11.772572813,339,352,97,218,444,359,171,109,84,77,0
11.794457737,340,353,110,246,441,354,168,121,85,78,0
11.809475011,340,353,114,259,412,340,178,132,85,76,0
11.832029331,341,354,132,242,401,334,187,134,86,82,0
11.855104735,341,354,144,315,391,322,175,128,76,77,0
11.868688799,342,355,139,313,366,361,177,115,71,71,0
11.892719334,343,356,134,323,403,399,182,100,71,71,0
11.914370077,343,356,137,343,432,410,180,87,77,80,0
11.928838029,344,357,124,356,411,471,183,89,84,79,0
11.951948218,344,357,122,337,463,524,183,87,84,79,0
11.974923627,345,358,110,336,485,515,178,93,82,75,0
11.989198146,345,358,113,322,467,514,192,116,85,78,0
12.012234663,346,359,114,299,452,529,227,136,94,82,0
12.034538955,347,360,115,305,474,491,236,139,94,84,0
12.057036869,347,360,113,282,493,451,229,137,90,87,0
12.073208175,348,361,117,299,474,444,224,131,88,91,0
12.101844481,349,362,112,304,446,486,226,122,87,88,0
12.117605390,349,362,103,309,483,492,190,112,75,82,0
12.131974082,350,363,107,324,504,505,167,116,76,83,0
12.154571755,350,363,111,332,407,479,180,116,80,81,0
12.177014532,351,364,119,321,437,461,177,122,81,82,0
12.192162827,352,365,119,304,485,418,167,136,91,90,0
12.215801105,352,365,138,342,454,371,172,135,97,95,0
12.238448107,353,366,130,300,434,336,192,149,96,93,0
12.259821069,353,366,129,291,438,342,198,170,102,91,0
12.274467902,354,367,139,290,453,330,204,173,112,93,0
12.298648959,355,368,149,314,428,287,207,158,112,89,0
12.312221050,355,368,133,263,449,290,204,156,109,81,0
12.334448408,356,369,133,253,418,270,178,142,107,76,0
12.356932896,356,369,127,220,404,235,157,116,98,77,0
12.373148087,357,370,113,203,391,218,152,109,92,70,0
12.394807954,357,371,110,149,360,182,133,105,77,60,0
12.417498142,358,372,138,136,308,149,119,93,73,60,0
12.432636600,359,373,147,136,296,139,122,78,69,62,0
12.455248359,359,373,147,163,308,110,112,74,68,54,0
12.477713714,360,374,147,163,266,124,96,58,59,53,0
12.491343391,360,374,150,158,265,120,92,60,54,54,0
12.514575620,361,375,143,161,337,134,118,67,57,60,0
12.537509307,362,376,145,159,337,135,151,80,66,63,0
12.559555397,363,377,143,143,321,146,163,91,70,66,0
12.575859750,363,377,141,131,344,140,180,109,74,72,0
12.596989154,364,378,137,151,354,140,180,110,79,73,0
12.611224979,364,378,125,166,351,141,177,111,78,64,0
12.636366361,365,379,140,176,376,154,152,105,73,69,0
12.657120676,365,379,138,171,373,147,157,104,76,69,0
12.671322185,366,380,153,163,339,159,160,98,80,68,0
12.695102793,366,380,148,155,344,159,169,92,76,69,0
12.716968552,367,381,154,138,293,153,155,88,73,69,0
12.731661260,367,381,126,158,293,192,163,90,73,60,0
12.754665165,368,382,141,159,313,206,192,107,73,66,0
12.784502737,369,383,126,293,353,303,212,117,73,73,0
12.791521766,369,383,126,329,440,323,228,127,78,77,0
12.814641612,370,384,118,376,443,352,267,143,84,86,0
12.837104082,371,385,144,428,492,375,308,159,96,120,0
12.851292658,371,385,180,450,533,414,311,152,109,182,0
12.875045759,372,386,194,446,558,397,300,145,116,189,0
12.897052512,372,386,197,442,585,435,302,148,115,191,0
12.911824161,373,387,215,459,641,443,301,164,118,192,0
12.935136030,374,388,227,477,633,424,296,167,109,177,0
12.957557476,374,388,217,484,620,399,306,178,95,155,0
12.971373273,375,389,233,447,665,380,318,195,97,155,0
12.995077473,376,390,240,452,623,428,342,206,101,152,0
13.017715050,376,390,239,414,580,479,335,198,97,150,0
13.047437293,377,391,219,339,587,492,340,220,104,148,0
13.055104614,377,391,202,337,597,488,331,249,139,127,0
13.077016027,378,392,181,351,501,481,333,243,141,143,0
13.099836284,378,392,173,412,489,403,304,233,142,144,0
13.115458484,379,393,153,450,518,351,293,232,144,144,0
13.137165799,379,393,159,445,477,378,283,208,148,153,0
13.160896212,380,394,170,436,512,401,251,163,117,133,0
13.174816949,381,395,196,438,543,413,221,154,103,106,0
13.197504172,381,395,197,364,526,440,217,147,105,119,0
13.219637859,382,396,198,327,513,436,212,131,97,118,0
13.234447870,383,397,192,336,574,402,164,110,83,103,0
13.256958527,383,397,196,360,571,403,172,104,77,104,0
13.280121510,384,398,153,320,561,415,178,103,83,100,0
13.294879395,384,398,157,306,570,404,172,124,82,79,0
13.316988909,385,399,159,290,577,388,167,125,81,72,0
13.339724446,386,400,158,289,520,383,156,124,80,78,0
13.355183223,386,400,127,226,501,410,175,118,81,74,0
13.376989189,387,401,137,231,529,393,159,108,70,74,0
13.400058101,388,402,167,245,526,372,150,81,60,88,0
13.414456649,388,402,164,264,513,370,201,75,59,89,0
13.437919602,389,403,161,268,572,376,202,71,63,82,0
13.459844726,389,403,166,323,566,305,179,72,64,77,0
13.473959867,390,404,185,336,550,262,178,72,66,85,0
13.497453354,390,404,147,333,547,298,171,71,67,74,0
13.519539733,391,405,144,303,605,303,134,73,70,76,0
13.534151800,391,405,138,326,615,358,173,78,65,72,0
13.557598677,392,406,132,308,614,421,186,76,58,76,0
13.579580786,393,407,112,314,590,441,189,71,56,84,0
13.593709328,393,407,119,325,648,439,208,81,57,85,0
13.617231362,394,408,114,350,573,482,203,80,49,84,0
13.640914627,395,409,158,323,513,442,178,84,59,116,0
13.653704321,395,409,163,309,486,420,202,95,65,120,0
13.677043239,396,410,151,310,556,481,226,107,73,114,0
13.699497367,397,411,142,311,477,471,221,100,71,112,0
13.713771383,397,411,144,286,497,455,213,98,72,112,0
13.737126198,398,412,118,324,479,481,206,86,63,82,0
13.767061455,399,413,123,322,482,464,181,70,64,82,0
13.773975217,399,413,124,341,473,397,165,66,57,69,0
13.797048560,399,413,124,355,459,417,165,65,55,68,0
13.819455533,400,414,129,379,467,379,172,67,56,64,0
13.833897174,401,415,127,402,550,423,183,74,58,68,0
13.857055905,401,415,117,415,574,406,182,78,56,65,0
13.879454751,402,416,147,409,538,446,179,76,57,85,0
13.894476651,402,416,152,420,561,434,167,77,56,85,0
13.917833005,403,417,148,405,564,455,174,78,58,87,0
13.939450960,404,418,140,374,546,438,171,80,64,85,0
13.961993185,404,418,141,358,505,478,158,79,63,81,0
13.977050505,405,419,108,352,490,450,143,70,61,62,0
13.999583029,405,419,114,367,523,455,170,76,67,72,0
14.022305329,406,420,114,366,510,440,157,73,70,78,0
14.044794254,407,421,116,375,442,405,173,81,68,85,0
14.059601234,407,421,120,379,480,415,188,80,69,94,0
14.081865885,408,422,125,393,508,449,213,92,70,99,0
14.096900539,408,422,126,384,514,476,200,88,68,94,0
14.119536318,409,423,129,410,519,476,205,92,62,90,0
14.142324874,410,424,125,386,514,474,189,80,62,85,0
14.157187453,410,424,116,382,488,477,206,97,62,75,0
14.179752399,411,425,110,356,490,423,200,108,79,73,0
14.202017575,411,425,100,305,431,415,201,120,90,79,0
14.217481025,412,426,111,327,436,439,203,123,95,81,0
14.239978236,413,427,116,328,450,410,212,132,97,76,0
14.262435133,413,427,131,355,481,415,213,147,113,91,0
14.277255442,414,428,135,371,433,438,214,151,105,92,0
14.299431189,414,428,147,417,493,476,237,149,97,90,0
14.322354564,415,429,130,359,457,458,228,150,98,85,0
14.336956168,416,430,118,350,425,467,218,150,100,85,0
14.359488107,416,430,115,341,404,409,192,127,84,71,0
14.382263711,417,431,103,319,430,423,198,125,85,65,0
14.396229999,417,431,78,260,340,331,187,123,89,57,0
14.419527718,418,432,82,277,353,320,192,125,88,62,0
14.442214506,419,433,90,275,366,322,216,126,90,71,0
14.456359570,419,433,84,239,335,341,222,129,90,72,0
14.479435808,420,434,86,232,300,318,212,123,92,77,0
14.502350957,420,434,88,231,303,306,187,125,93,77,0
14.517315457,421,435,88,235,330,307,190,119,90,75,0
14.539642632,422,436,88,223,317,358,184,114,87,66,0
14.562206752,422,436,88,224,356,349,193,113,92,67,0
14.576365980,423,437,85,211,339,338,192,106,86,63,0
14.599342930,423,437,82,197,333,341,213,120,99,71,0
14.621974441,424,438,89,216,287,338,215,128,107,75,0
14.644576273,425,439,89,222,301,295,253,135,105,76,0
14.659463254,425,439,84,223,278,326,255,141,102,74,0
14.682207130,426,440,87,224,263,313,288,150,101,72,0
14.696452507,426,440,112,291,296,381,328,163,91,71,0
14.719472644,427,441,107,277,303,400,394,194,95,79,0
14.741878260,427,441,102,296,311,435,377,202,101,83,0
14.756247406,428,442,123,343,299,434,404,249,123,95,0
14.779673328,429,443,128,364,313,450,385,248,138,103,0
14.802389840,429,443,114,332,296,444,341,240,141,104,0
14.816407609,430,444,112,342,324,437,293,260,164,101,0
14.839710521,430,444,120,354,307,416,276,267,169,102,0
14.877857158,432,446,104,317,309,415,242,235,158,93,0
14.880616769,432,446,106,311,318,431,244,250,158,96,0
14.899402422,432,446,112,313,316,444,293,249,165,116,0
14.929758847,433,447,129,325,283,440,272,227,149,121,0
14.945739097,434,448,138,319,339,501,325,218,147,119,0
14.959365893,434,448,135,335,323,497,322,223,154,121,0
14.989355037,435,449,137,338,319,542,332,227,155,116,0
15.004414303,435,449,134,342,355,513,294,233,153,97,0
15.019738926,436,450,125,316,352,514,290,215,157,99,0
15.042073844,437,451,109,296,344,425,247,217,155,100,0
15.072084612,437,451,108,274,332,437,255,214,155,105,0
15.080188549,438,452,98,252,323,345,262,212,155,108,0
15.102160930,438,452,92,240,278,347,266,198,147,104,0
15.124587425,439,453,83,234,324,350,255,198,139,96,0
15.139572301,439,453,91,234,297,369,255,189,139,99,0
15.162173631,440,454,90,219,320,394,274,215,166,100,0
15.184506357,441,455,90,225,320,405,249,214,169,100,0
15.208774752,442,456,94,228,310,380,247,218,167,100,0
15.222056837,442,456,92,218,275,400,272,220,164,100,0
15.244571401,443,457,93,234,311,442,270,221,168,94,0
15.266846278,443,457,104,247,297,402,234,187,135,91,0
15.282431658,444,458,99,235,337,423,232,167,130,91,0
15.304555171,444,458,98,222,367,491,225,168,132,99,0
15.319422065,445,459,100,260,378,486,192,155,138,110,0
15.342342749,445,459,89,243,355,486,183,147,130,114,0
15.364713053,446,460,74,223,351,518,188,152,130,117,0
15.378923773,447,461,81,261,328,513,199,161,157,121,0
15.402155156,447,461,86,270,319,450,250,168,152,113,0
15.433809912,448,462,100,273,321,428,253,172,144,109,0
15.438767831,448,462,107,280,348,363,239,167,141,105,0
15.462069916,449,463,111,297,365,318,240,162,146,100,0
15.484962545,450,464,122,314,362,342,254,173,153,110,0
15.499184921,450,464,121,303,338,351,225,184,168,121,0
15.522225643,451,465,116,283,348,356,242,198,183,123,0
15.544964157,452,466,114,297,342,378,254,218,195,142,0
15.558729336,452,466,117,307,334,406,246,225,195,143,0
15.582143922,453,467,101,264,338,419,218,223,176,134,0
15.604661130,453,467,103,304,377,439,210,213,165,127,0
15.619228190,454,468,105,343,409,449,191,196,163,118,0
15.642395879,455,469,103,326,374,450,195,198,162,96,0
15.672329234,455,469,99,324,387,473,225,190,156,93,0
15.678880062,456,470,116,364,378,418,240,182,146,87,0
15.709593514,456,470,118,347,368,436,257,182,146,92,0
15.725112182,457,471,116,326,297,418,257,188,128,93,0
15.739346243,457,471,114,315,296,407,248,168,105,91,0
15.761910233,458,472,111,293,288,330,216,171,112,89,0
15.784385003,459,473,95,256,315,368,196,157,101,83,0
15.799417942,459,473,79,234,294,337,155,135,93,78,0
15.822237980,460,474,65,191,305,327,147,130,92,71,0
15.844634032,461,475,63,195,318,321,139,126,92,76,0
15.866386344,461,475,65,200,301,347,180,115,79,75,0
15.884068102,462,476,78,192,256,299,189,127,85,79,0
15.904234594,462,476,86,181,252,288,201,130,83,74,0
15.926223246,463,477,106,223,261,318,201,126,85,81,0
15.944504590,463,477,120,231,244,323,213,138,89,86,0
15.963711482,464,478,127,291,343,385,185,129,83,93,0
15.986428887,465,479,131,314,349,392,191,120,76,97,0
16.005615064,465,479,132,357,361,466,240,156,85,113,0
16.023959501,466,480,122,346,357,469,239,151,81,123,0
16.046734386,467,481,121,354,392,483,231,138,77,124,0
16.066025092,467,481,130,356,358,413,227,142,77,130,0
16.083928915,468,482,120,330,407,407,225,156,93,134,0
16.106963103,468,482,122,302,405,304,197,135,98,127,0
16.123551527,469,483,123,322,405,331,248,159,104,120,0
16.144114424,469,483,120,326,391,323,251,162,104,121,0
16.166879752,470,484,111,301,418,333,254,153,104,115,0
16.183692127,471,485,107,303,385,365,277,142,90,104,0
16.203822352,471,485,105,297,429,378,283,160,99,101,0
16.228664040,472,486,108,290,430,369,313,209,127,105,0
16.243934520,472,486,117,301,496,397,330,210,134,113,0
16.263907837,473,487,110,280,470,412,337,222,142,109,0
16.286303017,474,488,117,282,479,451,326,222,141,113,0
16.304169307,474,488,115,308,479,478,322,210,128,108,0
16.325939623,475,489,110,321,482,486,286,158,101,109,0
16.346259447,475,489,104,298,415,471,275,153,88,94,0
16.363808070,476,490,105,308,409,559,279,152,92,96,0
16.386446473,477,491,107,322,413,517,274,152,93,100,0
16.406672042,477,491,123,364,389,489,281,172,104,111,0
16.424134881,478,492,127,352,389,459,276,183,107,109,0
16.446187875,478,492,131,356,405,534,281,200,116,116,0
16.466431960,479,493,144,368,409,478,288,196,106,119,0
16.484476257,480,494,138,344,389,500,301,226,121,119,0
16.506631657,480,494,128,295,397,525,311,205,112,112,0
16.526874656,481,495,127,272,444,521,306,196,110,110,0
16.548954365,482,496,130,281,426,445,346,240,132,121,0
16.567258822,482,496,116,254,435,422,346,249,135,119,0
16.586227299,483,497,127,288,450,417,346,228,127,122,0
16.608793093,483,497,121,258,419,419,349,247,134,125,0
16.626512670,484,498,123,304,385,428,337,240,131,119,0
16.646636040,484,498,118,334,380,447,285,190,106,106,0
16.668991577,485,499,136,355,331,432,275,201,112,107,0
16.686057851,486,500,130,346,399,429,279,209,115,101,0
16.707627543,486,500,129,357,456,444,263,188,110,99,0
16.729132486,487,501,129,358,437,461,276,204,116,99,0
16.746197458,487,501,121,331,438,472,290,218,125,88,0
16.766316666,488,502,99,336,447,449,294,203,125,86,0
16.788845078,489,503,91,346,403,446,269,188,115,81,0
16.807784076,489,503,98,333,359,411,265,222,123,79,0
16.827301938,490,504,112,345,368,400,248,208,115,81,0
16.849226778,491,505,112,329,350,336,223,186,104,93,0
16.866380516,491,505,113,297,359,357,200,172,89,85,0
16.886543751,492,506,124,313,330,333,198,167,90,96,0
16.908989692,492,506,116,316,294,335,174,131,81,92,0
16.926888347,493,507,95,269,305,302,168,137,87,91,0
16.946199810,493,507,93,263,375,294,193,149,89,78,0
16.968821365,494,508,92,261,365,271,198,149,92,84,0
16.986360542,495,509,74,200,385,246,187,146,91,70,0
17.007134550,495,509,76,180,388,168,163,121,81,68,0
17.028936476,496,510,77,151,433,165,152,104,73,65,0
17.046930653,496,510,115,151,372,158,114,80,62,69,0
17.066841909,497,511,137,166,391,152,88,66,55,67,0
17.089372695,498,512,164,179,356,166,100,73,58,75,0
17.107142447,498,512,188,212,359,204,126,93,61,83,0
17.126283890,499,513,211,206,258,201,124,92,62,90,0
17.148809955,499,513,196,210,318,205,126,101,61,88,0
17.166846891,500,514,205,188,312,188,147,115,66,87,0
17.186990494,501,515,210,199,335,180,149,122,68,80,0
17.208839183,501,515,215,187,372,155,135,112,71,82,0
17.226178453,502,516,198,196,399,161,146,114,72,80,0
17.246638138,502,516,204,190,362,181,148,120,85,91,0
17.276409871,503,517,191,196,352,248,138,115,86,93,0
17.286369256,504,518,166,174,400,294,162,133,86,93,0
17.306286862,504,518,176,172,373,287,163,135,86,93,0
17.328781532,505,519,177,177,345,278,161,133,84,88,0
17.347193472,505,519,169,175,344,263,153,121,72,73,0
17.366350394,506,520,158,166,351,208,161,125,71,70,0
17.396379067,507,521,156,153,278,131,139,99,67,80,0
17.406246937,507,521,136,131,261,128,129,88,61,69,0
17.426375472,508,522,132,143,302,144,131,85,61,69,0
17.449418776,508,522,142,166,354,140,136,86,62,69,0
17.466047466,509,523,138,186,358,141,126,85,64,70,0
17.486279878,510,524,144,197,350,151,118,83,59,54,0
17.508839290,510,524,118,200,371,152,130,91,62,59,0
17.526253745,511,525,123,194,353,135,127,91,61,62,0
17.546314421,511,525,107,172,338,154,124,88,61,66,0
17.568921339,512,526,110,157,313,138,113,72,51,61,0
17.586176520,512,526,128,148,336,125,103,64,53,66,0
17.606371040,513,527,163,152,320,135,87,52,50,66,0
17.629483809,514,528,153,126,358,156,75,49,48,61,0
17.646196941,514,528,162,128,317,132,86,64,55,63,0
17.668599685,515,529,167,126,322,132,107,77,60,69,0
17.696298568,516,530,162,156,311,136,148,95,65,68,0
17.706175719,516,530,137,159,320,126,161,99,67,70,0
17.729334074,517,531,141,170,276,108,186,110,78,73,0
17.748904886,517,531,137,179,302,113,192,117,77,70,0
17.771478318,518,532,158,175,291,120,194,130,81,73,0
17.789146527,518,532,146,195,307,118,169,120,75,68,0
17.817449550,519,533,135,181,309,122,166,126,79,65,0
17.839355902,520,534,132,182,291,117,135,115,69,63,0
17.849731417,520,534,132,178,272,107,123,100,64,60,0
17.871395934,521,535,102,179,326,127,108,76,61,53,0
17.891267212,522,536,130,175,336,133,101,70,59,55,0
17.908912580,522,536,137,190,345,144,94,60,50,52,0
17.928899760,523,537,137,179,369,151,102,70,53,52,0
17.951506102,523,537,133,176,356,152,90,75,49,51,0
17.969089763,524,538,140,195,350,135,96,74,44,52,0
17.989525648,525,539,112,190,313,130,99,78,43,48,0
18.011195386,525,539,108,177,280,115,96,76,53,55,0
18.028724879,526,540,115,183,265,107,91,73,51,54,0
18.049475077,526,540,113,192,377,147,109,76,53,56,0
18.071454856,527,541,110,187,354,160,123,77,50,54,0
18.088838625,528,542,117,157,380,166,137,79,53,54,0
18.108814028,528,542,109,154,388,163,176,92,52,49,0
18.131295410,529,543,104,153,421,184,200,103,54,50,0
18.149468028,529,543,113,146,364,171,221,126,59,54,0
18.169016604,530,544,107,153,344,167,251,160,70,53,0
18.191247894,531,545,116,149,310,160,264,189,75,56,0
18.209229105,531,545,118,158,344,166,241,190,76,57,0
18.229274780,532,546,114,172,351,151,229,187,75,55,0
18.254063308,532,546,102,175,321,144,215,175,76,51,0
18.268711111,533,547,100,159,335,147,180,148,69,49,0
18.288954399,533,547,114,186,365,146,170,115,62,44,0
18.311922298,534,548,114,186,399,158,172,108,59,42,0
18.330332885,535,549,145,180,350,151,168,104,65,47,0
18.348922385,535,549,152,180,342,141,152,94,61,48,0
18.374542494,536,550,150,174,391,139,131,85,59,52,0
18.388678348,536,550,128,143,375,130,110,82,63,54,0
18.409367596,537,551,137,142,310,123,107,79,62,55,0
18.431367556,538,552,108,141,331,144,132,85,55,53,0
18.448858037,538,552,110,125,347,142,139,86,53,52,0
18.468663399,539,553,107,133,269,128,145,87,55,53,0
18.491150927,540,554,104,160,272,136,143,87,57,56,0
18.509095280,540,554,94,172,320,136,144,93,63,59,0
18.529065906,541,555,97,172,306,119,138,98,62,58,0
18.551267206,541,555,83,174,305,139,136,99,63,59,0
18.569154138,542,556,90,177,345,151,136,101,58,56,0
18.589336293,542,556,90,169,370,169,147,99,55,50,0
18.611394632,543,557,115,163,437,207,141,90,46,44,0
18.628803573,544,558,113,156,449,213,125,82,48,48,0
18.648915341,544,558,115,161,460,207,135,94,46,52,0
18.671152241,545,559,109,159,444,204,140,102,53,57,0
18.694238347,546,560,113,162,430,196,131,96,51,61,0
18.709029955,546,560,95,165,354,148,155,110,56,63,0
18.731326045,547,561,96,174,345,136,160,107,53,58,0
18.753805037,547,561,94,187,328,135,158,101,53,54,0
18.768715433,548,562,110,203,367,141,151,93,47,53,0
18.791358467,548,562,106,198,382,134,169,125,59,54,0
18.814009661,549,563,96,199,337,135,162,127,62,54,0
18.828891972,550,564,122,194,357,146,177,151,72,58,0
18.851731333,550,564,122,186,376,135,169,149,72,59,0
18.874048911,551,565,107,170,381,146,175,148,78,61,0
18.888834241,551,565,109,168,341,158,169,124,69,58,0
18.911567668,552,566,115,167,351,153,158,113,64,57,0
18.933804765,553,567,101,167,323,150,166,106,60,57,0
18.949496504,553,567,122,182,313,160,171,108,63,60,0
18.971490499,554,568,133,184,271,152,168,107,56,54,0
19.001372830,555,570,153,174,291,160,159,117,58,61,0
19.012249109,555,570,149,171,317,164,168,138,63,64,0
19.031288346,556,571,137,212,355,180,195,153,66,63,0
19.061164649,557,572,120,196,329,189,192,150,62,57,0
19.071577033,557,572,126,206,367,198,238,164,63,57,0
19.091235018,557,572,107,250,383,198,233,155,61,51,0
19.116239697,558,573,124,261,354,212,233,136,56,53,0
19.131079600,559,574,149,229,306,193,202,111,54,52,0
19.151312243,559,574,169,233,318,188,207,124,65,58,0
19.173858697,560,575,165,235,332,198,182,113,70,65,0
19.191165251,560,575,192,200,367,205,192,126,71,83,0
19.211210114,561,576,199,196,429,196,199,133,72,92,0
19.234414784,562,577,192,200,494,208,197,128,68,97,0
19.251508735,562,577,181,235,493,213,200,120,83,133,0
19.271231111,563,578,234,246,459,228,188,124,109,198,0
19.293689750,563,578,218,252,435,220,191,127,119,212,0
19.318886764,564,579,208,255,400,229,263,162,133,217,0
19.339495578,565,580,203,268,321,221,277,196,139,228,0
19.353842567,565,580,196,226,313,231,302,223,135,210,0
19.371439569,566,581,121,193,390,225,334,241,117,164,0
19.391669648,566,581,114,177,380,238,359,253,111,140,0
19.421292954,567,582,108,205,389,243,324,243,104,134,0
19.431898545,568,583,115,184,427,266,315,212,96,131,0
19.451383010,568,583,144,233,438,246,293,196,92,137,0
19.474826507,569,584,155,265,360,232,250,167,90,126,0
19.491383512,569,584,161,279,357,243,205,145,85,135,0
19.511254348,570,585,165,265,380,255,185,124,76,134,0
19.533866226,571,586,164,283,351,233,173,135,80,121,0
19.551384832,571,586,184,252,351,256,168,123,74,111,0
19.571341516,572,587,178,222,371,262,176,125,71,108,0
19.593845988,572,587,166,218,380,242,181,125,78,94,0
19.611463564,573,588,168,200,367,238,171,121,74,74,0
19.631323987,573,588,164,206,384,236,166,110,71,74,0
19.653742318,574,589,130,207,396,236,161,103,71,86,0
19.676726626,575,590,131,240,417,241,166,100,72,86,0
19.691325497,575,590,133,243,418,251,169,101,68,85,0
19.713819034,576,591,126,268,449,272,169,104,78,92,0
19.736309266,577,592,142,275,461,283,207,112,77,86,0
19.751768252,577,592,129,283,464,296,214,117,82,79,0
19.774288917,578,593,155,275,451,303,219,122,81,79,0
19.797018545,578,593,164,302,436,287,219,118,83,82,0
19.811283436,579,594,184,275,378,274,225,112,76,84,0
19.833779709,580,595,173,254,391,275,191,105,73,83,0
19.856491326,580,595,170,242,397,248,198,116,71,83,0
19.871236807,581,596,149,223,402,270,183,122,74,92,0
19.893695030,581,596,146,194,449,294,181,128,90,105,0
19.916114708,582,597,142,189,453,271,164,135,92,100,0
19.931401401,582,597,139,178,442,265,168,142,97,101,0
19.954169157,583,598,143,180,448,277,146,122,91,95,0
19.976375220,584,599,133,181,434,224,137,111,90,82,0
19.991578120,584,599,128,144,372,186,126,100,72,61,0
20.014415838,585,600,98,135,380,185,148,95,69,58,0
20.039506230,586,601,90,124,337,180,164,93,67,59,0
20.059522845,586,601,109,114,372,158,159,93,70,62,0
20.081896867,587,602,112,98,369,160,154,90,66,58,0
20.098654853,587,602,103,94,373,154,156,89,63,54,0
20.111819290,588,603,101,97,398,165,143,88,69,53,0
20.134430097,589,604,105,95,387,154,115,71,63,47,0
20.156205024,589,604,75,88,366,152,123,75,59,39,0
20.171221085,590,605,85,89,338,135,128,77,57,38,0
20.194469359,590,605,83,86,327,131,118,73,55,38,0
20.216409557,591,606,78,99,318,125,105,77,47,34,0
20.231297744,591,606,74,99,359,139,100,81,50,39,0
20.253870422,592,607,69,95,310,131,92,76,52,38,0
20.276381663,593,608,49,92,317,134,87,77,52,39,0
20.291911908,593,608,52,95,321,137,96,75,51,36,0
20.316156030,594,609,56,80,294,130,112,78,54,39,0
20.336377455,595,610,59,83,241,114,131,73,49,36,0
20.361601975,595,610,59,86,221,102,127,77,51,39,0
20.375363097,596,611,61,86,211,97,121,72,51,41,0
20.396947981,596,611,60,91,223,106,112,71,51,44,0
20.413964987,597,612,62,89,178,89,95,65,44,43,0
20.433669892,597,612,53,85,170,88,77,68,48,41,0
20.456441120,598,613,61,82,182,93,78,68,46,41,0
20.475250471,599,614,70,86,224,96,84,81,51,44,0
20.494333212,599,614,71,88,271,93,89,81,53,43,0
20.516296500,600,615,63,88,267,94,94,74,52,40,0
20.533919594,600,615,65,84,329,105,86,71,50,40,0
20.553864884,601,616,66,126,325,104,91,62,46,37,0
20.576356590,602,617,63,125,320,127,93,49,44,37,0
20.607339582,603,618,64,124,314,132,97,61,44,38,0
20.613817516,603,618,62,125,333,136,92,67,45,39,0
20.636626104,604,619,62,127,274,129,110,70,49,41,0
20.659114261,604,619,54,93,276,125,105,76,52,41,0
20.673856155,605,620,53,91,267,119,115,92,57,45,0
20.696488712,605,620,56,95,214,111,110,83,53,43,0
20.719051213,606,621,59,115,266,113,110,79,51,44,0
20.733894863,606,621,63,129,282,117,96,81,54,50,0
20.756486880,607,622,62,126,293,117,104,82,52,49,0
20.779043603,608,623,57,153,313,122,87,62,41,44,0
20.793760827,608,623,56,173,312,116,107,69,49,54,0
20.816603657,609,624,72,178,269,109,105,71,54,61,0
20.839499852,609,624,97,180,288,110,101,65,50,61,0
20.861387868,610,625,114,192,360,144,104,71,56,66,0
20.876209664,610,625,119,200,439,163,106,71,57,64,0
20.899880501,611,626,118,201,489,190,89,70,55,57,0
20.914022387,612,627,109,196,514,199,93,70,53,50,0
20.943778919,613,628,87,198,515,206,103,73,52,44,0
20.958865512,613,628,71,196,515,206,129,76,56,46,0
20.974144788,614,629,60,184,432,201,128,81,60,47,0
20.996416865,614,629,63,176,402,195,137,83,64,49,0
21.019518899,615,630,65,196,411,206,147,87,69,57,0
21.033712738,615,630,71,213,450,231,148,85,69,61,0
21.063822295,616,631,67,226,411,224,138,71,62,55,0
21.078907929,617,632,68,219,436,245,155,79,63,55,0
21.093806840,617,632,64,220,460,256,156,79,60,54,0
21.117095373,618,633,67,205,463,265,149,81,54,48,0
21.138789716,619,634,61,177,414,253,147,91,65,50,0
21.153899892,619,634,65,161,411,264,132,94,68,53,0
21.176548822,620,635,67,169,454,245,117,82,64,52,0
21.199414251,620,635,67,161,474,232,113,87,68,52,0
21.213874147,621,636,60,152,429,214,113,80,70,50,0
21.236375897,621,636,60,145,426,206,104,72,60,44,0
21.259399684,622,637,56,144,435,184,99,69,56,42,0
21.273969324,623,638,53,170,387,178,105,75,57,43,0
21.297070127,623,638,55,169,340,202,112,64,48,40,0
21.318882438,624,639,63,181,370,209,110,74,50,42,0
21.341355086,625,640,71,197,400,225,148,102,70,54,0
21.363968604,625,640,68,226,394,250,169,113,74,55,0
21.386991588,626,641,73,236,399,252,166,113,74,56,0
21.393773058,626,641,77,236,388,245,168,113,73,58,0
21.418631107,627,642,89,253,399,272,174,109,71,61,0
21.439037537,627,642,83,287,425,314,175,92,55,50,0
21.454446709,628,643,91,266,426,318,152,81,50,50,0
21.476410366,629,644,86,241,402,312,163,85,52,47,0
21.498748592,629,644,82,239,382,314,161,101,63,47,0
21.521211177,630,645,63,214,334,316,168,109,68,42,0
21.536343913,630,645,63,182,277,284,206,123,75,45,0
21.558940289,631,646,51,186,233,316,306,135,77,44,0
21.581351637,632,647,48,176,214,318,313,149,88,52,0
21.596207466,632,647,58,211,222,308,331,143,85,52,0
21.627120402,633,648,62,240,248,306,352,161,86,54,0
21.649494212,634,649,63,226,238,367,339,147,80,53,0
21.656342266,634,649,64,215,252,324,293,159,89,59,0
21.678874438,635,650,80,231,295,346,299,160,85,61,0
21.701201367,635,650,77,209,288,379,312,181,102,66,0
21.716399048,636,651,75,196,264,450,321,174,108,71,0
21.738863267,636,651,84,235,262,432,324,187,115,73,0
21.761390624,637,652,90,255,277,484,318,179,110,72,0
21.776518271,638,653,79,240,240,519,311,178,115,74,0
21.798585080,638,653,81,243,253,554,341,180,106,72,0
21.821355405,639,654,82,264,253,550,332,189,97,64,0
21.836132073,639,654,70,230,226,543,333,219,125,75,0
21.861201819,640,655,68,232,184,515,348,227,147,78,0
21.881333817,641,656,72,228,225,476,343,241,166,87,0
21.896227088,641,656,65,220,209,421,308,241,166,88,0
21.918646571,642,657,77,192,203,338,299,265,189,106,0
21.941965852,642,657,79,191,207,347,299,261,183,106,0
21.956296139,643,658,78,179,229,348,270,271,175,107,0
21.978854402,644,659,75,187,187,351,294,261,154,98,0
22.005166206,644,659,84,230,216,348,268,262,163,100,0
22.018796125,645,660,87,242,233,361,295,233,155,92,0
22.038729448,645,660,88,249,245,328,276,204,143,87,0
22.061253152,646,661,87,254,223,315,280,173,131,83,0
22.084327251,647,662,94,257,213,329,271,178,144,88,0
22.106458329,647,662,88,218,223,329,301,179,146,94,0
22.121291104,648,663,75,187,236,317,257,168,129,86,0
22.138789595,648,663,70,176,251,311,255,168,123,85,0
22.158757531,649,664,68,173,254,325,261,170,131,85,0
22.181219752,650,665,55,162,271,338,256,154,119,76,0
22.196245334,650,665,59,158,255,355,237,162,115,70,0
22.218709310,651,666,72,241,261,371,245,169,124,75,0
22.241200108,651,666,75,244,231,365,275,195,131,76,0
22.256136093,652,667,76,249,247,347,263,210,141,82,0
22.279236319,652,667,78,255,243,326,295,217,150,88,0
22.301324663,653,668,77,262,232,293,300,199,143,82,0
22.316310724,654,669,70,193,232,264,324,203,142,84,0
22.339210024,654,669,73,191,230,250,312,194,153,90,0
22.369472909,655,670,73,171,241,246,300,179,139,83,0
22.377573651,655,670,75,172,223,229,261,163,126,78,0
22.398678401,656,671,78,188,265,294,296,159,116,75,0
22.421260531,657,672,71,190,239,300,287,150,105,65,0
22.436603093,657,672,71,186,264,314,274,131,87,55,0
22.458776759,658,673,72,189,232,316,287,165,109,69,0
22.481372088,659,674,80,199,238,330,275,182,113,74,0
22.503699671,659,674,73,198,222,273,210,179,122,76,0
22.518923686,660,675,76,189,228,309,192,195,148,91,0
22.541345540,660,675,74,181,213,315,195,198,155,98,0
22.563856806,661,676,71,174,220,301,196,172,139,88,0
22.578770685,661,676,62,166,250,274,197,157,137,87,0
22.601177189,662,677,61,152,237,307,214,161,131,85,0
22.623846210,663,678,66,159,245,338,199,140,119,80,0
22.646353232,663,678,69,186,254,342,206,125,106,71,0
22.661236022,664,679,72,200,253,360,218,119,108,76,0
22.691953138,665,680,69,190,214,381,245,116,105,71,0
22.698841685,665,680,72,194,257,374,287,118,105,74,0
22.723958038,666,681,70,197,259,317,314,133,90,68,0
22.743857140,666,681,65,196,242,297,313,140,85,68,0
22.758843540,667,682,60,185,239,316,304,137,83,60,0
22.781195215,668,683,60,196,266,312,292,140,84,63,0
22.807637151,668,683,59,181,232,300,269,135,86,63,0
22.819293646,669,684,56,203,235,294,237,116,83,63,0
22.841851725,669,684,64,199,238,300,217,104,85,70,0
22.864016445,670,685,80,227,291,277,212,102,87,79,0
22.878853068,670,685,78,227,273,253,201,104,93,78,0
22.901342800,671,686,79,234,251,255,175,106,93,76,0
22.923813132,672,687,78,228,225,241,197,101,87,73,0
22.939288074,672,687,79,238,284,229,203,122,94,66,0
22.962090088,673,688,69,216,281,221,191,129,100,59,0
22.984419882,674,689,72,207,281,223,202,123,93,60,0
22.999431245,674,689,68,207,285,221,183,111,94,60,0
23.021325099,675,690,83,203,316,237,158,130,102,65,0
23.043861025,675,690,78,185,306,246,189,127,98,65,0
23.062220811,676,691,76,193,288,293,244,129,101,74,0
23.081370315,676,691,77,193,284,325,267,143,105,76,0
23.103950803,677,692,79,183,290,313,263,147,99,77,0
23.118756650,678,693,67,195,313,303,275,135,103,76,0
23.141525775,678,693,67,206,271,323,268,125,100,77,0
23.163948315,679,694,64,188,241,296,244,125,92,66,0
23.178791481,679,694,63,188,263,254,215,114,91,61,0
23.201369475,680,695,64,205,297,261,215,132,100,64,0
23.223840941,681,696,59,179,243,273,215,136,97,64,0
23.238848472,681,696,56,170,248,258,226,138,93,63,0
23.262651448,682,697,58,191,257,236,198,131,94,63,0
23.283795977,683,698,64,221,243,243,197,129,95,70,0
23.299549296,683,698,65,218,241,239,201,115,90,67,0
23.321857213,684,699,66,216,248,249,193,102,83,65,0
23.343817283,684,699,69,210,236,246,178,100,88,68,0
23.358779954,685,700,73,224,229,259,206,105,83,67,0
23.381227024,685,700,63,204,259,252,219,104,80,64,0
23.403973383,686,701,61,196,204,240,225,103,86,71,0
23.427069816,687,702,59,193,184,224,245,113,85,70,0
23.441538690,687,702,62,207,250,223,230,109,80,67,0
23.463861236,688,703,55,171,261,218,220,105,85,71,0
23.486306574,688,703,56,148,226,226,238,118,89,69,0
23.501776998,689,704,54,153,225,230,240,124,88,61,0
23.527646632,690,705,58,177,237,220,227,116,89,66,0
23.546929204,690,705,50,170,219,227,251,122,90,64,0
23.561334582,691,706,51,190,225,216,242,118,85,64,0
23.594475778,692,707,55,200,232,220,209,112,79,64,0
23.614405441,692,707,54,193,257,245,210,109,71,66,0
23.621630713,693,708,60,213,252,249,219,117,76,61,0
23.644309248,693,708,62,207,233,234,192,107,73,63,0
23.666252636,694,709,59,190,213,230,195,113,80,62,0
23.681797896,694,709,62,209,237,217,196,110,82,64,0
23.703914315,695,710,65,222,224,191,210,127,96,63,0
23.726411352,696,711,60,180,220,236,183,118,90,60,0
23.741611214,696,711,59,170,194,240,189,124,94,59,0
23.763862116,697,712,66,199,228,260,201,131,93,60,0
23.786598052,698,713,65,176,220,285,217,136,97,58,0
23.801348843,698,713,63,181,251,286,195,118,85,59,0
23.824546635,699,714,61,188,250,264,192,118,81,59,0
23.846287272,699,714,61,197,253,259,189,121,82,60,0
23.861620439,700,715,57,182,237,237,180,119,83,59,0
23.892215363,701,716,54,187,250,208,176,107,78,60,0
23.906329803,701,716,58,194,224,268,174,107,79,58,0
23.921723267,702,717,59,241,262,250,175,126,91,61,0
23.943707132,702,717,60,237,285,252,192,147,99,65,0
23.966332622,703,718,58,234,293,261,177,149,102,66,0
23.981400617,703,718,57,242,269,257,170,153,101,62,0
24.004286881,704,719,62,244,273,207,212,154,96,62,0
24.026279048,705,720,59,195,234,216,220,152,102,64,0
24.048688463,705,720,59,198,244,208,212,129,90,60,0
24.063794729,706,721,59,194,237,220,223,118,81,59,0
24.086220210,706,721,60,200,254,243,222,120,84,61,0
24.101417983,707,722,57,183,252,234,179,118,91,64,0
24.123863211,707,722,58,188,262,238,165,104,73,62,0
24.146821479,708,723,61,192,239,243,168,99,76,58,0
24.161513362,709,724,65,212,279,246,171,106,78,55,0
24.184701161,709,724,68,195,281,219,191,119,83,59,0
24.206292836,710,725,63,187,306,248,222,124,83,60,0
24.221365727,710,725,65,187,297,248,241,123,87,58,0
24.243808511,711,726,61,213,288,237,244,127,88,61,0
24.266999218,712,727,56,200,277,246,248,123,88,61,0
24.281309436,712,727,56,208,276,252,228,103,82,60,0
24.311911276,713,728,55,203,233,231,204,89,75,52,0
24.326744679,714,729,61,212,253,250,234,113,77,53,0
24.349442175,714,729,61,174,271,280,229,117,87,62,0
24.366404074,715,730,68,177,226,253,239,132,91,66,0
24.386349249,715,730,70,171,234,255,248,138,92,66,0
24.408925612,716,731,74,187,250,277,272,171,122,83,0
24.423876486,716,731,69,172,242,263,238,160,121,87,0
24.446365489,717,732,70,181,225,278,229,154,110,79,0
24.469003230,718,733,65,181,255,275,209,142,107,78,0
24.484144737,718,733,62,182,287,276,212,144,108,79,0
24.506308525,719,734,59,177,277,247,182,103,79,66,0
24.528798677,720,735,67,188,327,237,204,106,76,62,0
24.543814835,720,735,65,192,341,213,228,105,79,63,0
24.566249006,721,736,69,176,332,221,231,106,85,66,0
24.589050108,721,736,67,169,303,265,230,98,86,66,0
24.604189175,722,737,74,245,344,262,219,99,86,61,0
24.626957586,723,738,73,249,315,296,207,98,88,64,0
24.649031699,723,738,81,252,324,273,191,124,101,68,0
24.666936837,724,739,80,283,316,282,189,136,99,62,0
24.686949926,724,739,82,290,331,249,182,140,98,65,0
24.710074599,725,740,74,226,284,248,184,138,94,67,0
24.723726925,725,740,77,221,306,200,177,157,99,67,0
24.747486073,726,741,77,220,309,233,192,184,115,79,0
24.768976656,727,743,76,180,309,229,192,189,122,83,0
24.783895228,727,743,71,170,280,215,178,184,117,75,0
24.806288507,728,744,84,214,345,210,178,203,130,82,0
24.828957112,729,745,77,212,305,273,200,206,136,83,0
24.844331927,729,745,69,205,271,248,183,178,122,71,0
24.867007965,730,746,70,216,275,234,168,158,112,68,0
24.888975368,730,746,145,225,343,250,176,161,115,81,0
24.903889735,731,747,168,203,323,255,174,144,101,82,0
24.926262912,731,747,190,212,343,174,131,111,85,80,0
24.948898029,732,748,221,221,355,169,105,91,77,85,0
24.964295719,733,749,237,226,396,175,114,98,79,94,0
24.986225086,733,749,206,249,375,168,120,106,81,101,0
25.009691218,734,750,202,232,363,177,117,105,79,97,0
25.023714596,734,750,204,262,436,220,129,116,88,102,0
25.049053927,735,751,183,270,445,252,142,120,82,107,0
25.068762839,736,752,166,297,427,264,149,121,87,104,0
25.083787512,736,752,162,284,422,305,158,122,94,93,0
25.106316231,737,753,156,312,411,411,207,138,113,116,0
25.128895144,737,753,152,323,339,490,232,156,130,124,0
25.144106739,738,754,162,397,347,517,247,177,149,138,0
25.166449539,739,755,200,405,369,520,250,175,161,203,0
25.188906079,739,755,209,407,374,593,259,172,159,220,0
25.203927411,740,756,268,449,465,536,251,162,151,212,0
25.226376623,740,756,272,422,472,483,271,169,141,207,0
25.249224570,741,757,263,362,502,439,270,157,126,198,0
25.263716351,742,758,251,330,495,439,263,159,114,140,0
25.286335495,742,758,248,336,548,320,253,154,108,110,0
25.310892199,743,759,185,251,471,292,233,150,104,103,0
25.331781832,744,760,170,275,508,245,180,114,89,98,0
25.355082702,744,760,164,243,474,263,150,94,84,92,0
25.368790616,745,761,146,234,514,276,147,90,75,80,0
25.391279393,745,761,145,227,482,254,147,97,85,83,0
25.406696648,746,762,135,232,495,263,131,97,91,83,0
25.429544336,747,763,144,206,454,260,123,96,91,87,0
25.451295709,747,763,151,215,446,244,141,98,87,83,0
25.466250497,748,764,144,230,408,223,145,94,88,80,0
25.488775392,748,764,140,229,363,229,131,89,80,74,0
25.511369628,749,765,129,224,404,252,166,105,81,77,0
25.526425183,749,765,105,219,411,288,193,128,88,75,0
25.549125034,750,766,90,209,467,288,199,135,91,74,0
25.571211371,751,767,82,194,435,278,196,138,90,72,0
25.586692509,751,767,78,212,439,273,200,140,86,70,0
25.617594413,752,768,83,228,396,263,194,134,90,71,0
25.631528341,753,769,90,248,412,286,171,119,88,68,0
25.646463729,753,769,94,270,388,300,163,115,88,69,0
25.669186123,754,770,98,282,429,330,198,124,91,72,0
25.699406115,754,770,138,303,452,338,215,129,93,71,0
25.706306859,755,771,142,292,451,382,220,136,85,72,0
25.728957487,755,771,142,297,434,353,233,138,87,76,0
25.751183581,756,772,149,307,423,356,245,140,88,81,0
25.766347792,757,773,180,325,427,366,230,129,81,76,0
25.789472501,757,773,151,309,453,360,228,124,78,78,0
25.811321609,758,774,171,321,477,325,218,119,78,78,0
25.826322497,758,774,164,311,463,325,215,113,87,71,0
25.848893177,759,775,156,303,464,318,194,102,82,61,0
25.871413974,760,776,127,274,438,312,188,105,85,68,0
25.894253439,760,776,128,243,376,366,183,110,86,66,0
25.911151614,761,777,91,256,360,368,201,110,86,64,0
25.931363292,761,777,117,315,399,374,206,109,69,62,0
25.946513710,762,778,124,319,412,383,226,113,68,62,0
25.968854467,763,779,124,315,406,400,231,123,70,58,0
25.999492923,764,780,122,332,439,381,247,129,75,63,0
26.013731484,764,780,124,312,464,369,244,120,73,60,0
26.028959758,764,780,115,242,432,358,236,129,75,65,0
26.051468819,765,781,105,273,433,411,218,131,79,66,0
26.066228112,766,782,116,294,434,389,214,124,82,67,0
26.091037860,766,782,117,277,387,355,184,119,85,68,0
26.111195040,767,783,112,276,333,368,176,146,93,70,0
26.126178384,767,783,100,297,336,363,192,145,94,70,0
26.148853705,768,784,99,262,281,320,217,151,100,73,0
26.171258333,769,785,79,263,324,342,213,155,98,74,0
26.189788003,769,785,81,262,326,351,218,156,93,70,0
26.208827165,770,786,96,257,336,348,226,130,82,69,0
26.235951375,771,787,97,255,429,396,225,122,77,65,0
26.256514135,771,787,96,260,470,375,214,108,70,63,0
26.268862210,771,787,90,257,449,331,214,97,66,66,0
26.291472807,772,788,90,262,478,337,215,81,62,63,0
26.314367762,773,789,110,280,517,377,217,92,72,74,0
26.329423786,773,789,116,269,486,336,209,86,72,73,0
26.351272263,774,790,121,246,482,346,200,90,74,74,0
26.373723188,775,791,123,220,471,346,193,94,70,67,0
26.389050722,775,791,120,233,457,350,188,98,69,66,0
26.411946664,776,792,91,211,411,285,157,95,63,55,0
26.434323579,777,793,97,210,359,265,149,93,61,56,0
26.451265691,777,793,93,215,313,294,152,97,63,52,0
26.474408796,778,794,91,211,299,290,157,94,64,52,0
26.494202101,778,794,107,203,334,287,158,103,77,66,0
26.509110608,779,795,108,246,350,286,156,94,71,64,0
26.531344827,779,795,123,248,360,323,157,98,74,67,0
26.553831881,780,796,124,254,368,267,150,91,69,66,0
26.584655816,781,797,124,279,393,276,151,92,72,67,0
26.591499524,781,797,114,313,361,247,140,76,61,55,0
26.614077202,782,798,118,285,386,246,135,74,62,52,0
26.628705909,782,798,92,276,382,211,165,85,64,47,0
26.651594176,783,799,92,277,415,223,164,89,66,47,0
26.674336530,784,800,96,272,463,225,162,91,67,48,0
26.689033183,784,800,101,232,458,250,159,99,71,49,0
26.711330980,785,801,106,264,454,267,159,103,71,54,0
26.742234185,786,802,102,270,491,267,118,89,65,51,0
26.749268666,786,802,105,271,473,276,142,96,63,53,0
26.771458430,786,802,105,296,413,304,178,126,78,60,0
26.794337426,787,803,108,284,400,282,180,121,74,59,0
26.810123602,788,804,115,294,408,293,188,118,76,57,0
26.831535624,788,804,121,295,356,291,191,118,76,60,0
26.853831776,789,805,120,296,387,316,177,112,74,59,0
26.869238108,790,806,125,312,444,279,140,73,57,55,0
26.891408782,790,806,124,321,443,292,146,80,62,55,0
26.922756849,791,807,110,284,405,325,152,92,62,55,0
26.929401477,791,807,126,276,413,335,174,102,67,54,0
26.951333363,792,808,130,271,387,311,165,98,63,55,0
26.973711019,793,809,130,226,357,334,170,97,62,60,0
26.991330635,793,809,124,283,409,346,162,89,56,60,0
27.019452985,794,810,126,286,445,298,154,83,58,60,0
27.033859041,794,810,109,285,440,318,147,78,55,60,0
27.048722823,795,811,103,282,445,329,145,76,59,66,0
27.071210111,796,812,96,285,452,309,139,83,66,63,0
27.094035424,796,812,97,234,429,298,171,87,67,62,0
27.109021493,797,813,100,247,443,299,191,89,68,66,0
27.133794964,797,813,93,253,435,265,171,83,64,65,0
27.154387562,798,814,90,270,408,274,217,87,61,56,0
27.168767440,798,814,95,298,466,303,216,81,55,52,0
27.199434229,799,815,95,309,497,345,201,78,58,54,0
27.214595435,800,816,84,297,461,363,190,71,54,52,0
27.236396208,800,816,78,299,459,347,195,71,55,53,0
27.251446246,801,817,82,313,477,339,147,72,57,56,0
27.273789551,801,817,69,281,373,329,156,70,52,53,0
27.296363882,802,818,65,267,319,293,162,70,47,51,0
27.311337289,803,819,66,276,406,263,150,65,44,47,0
27.333638638,803,819,71,265,427,279,152,74,51,47,0
27.364421779,804,820,69,233,425,252,165,68,54,44,0
27.371217020,805,821,70,218,435,241,171,74,60,44,0
27.393912539,805,821,73,228,437,231,167,72,62,47,0
27.416236964,806,822,74,234,378,261,177,83,66,52,0
27.431236607,806,822,77,250,346,255,174,75,62,52,0
27.453758823,807,823,77,281,387,287,163,75,59,51,0
27.476514947,808,824,76,292,407,349,163,69,52,51,0
27.491393078,808,824,75,270,397,346,163,67,48,46,0
27.529419003,809,825,69,244,377,341,160,66,55,52,0
27.536237867,809,825,65,222,376,332,154,68,55,53,0
27.552324702,810,826,59,156,298,305,155,76,59,55,0
27.573880886,811,827,67,136,356,241,143,94,80,70,0
27.596700490,811,827,69,181,410,230,129,101,84,73,0
27.611252523,812,828,70,184,401,194,143,120,90,73,0
27.633876447,812,828,70,181,392,204,179,136,97,76,0
27.656336686,813,829,77,203,388,195,191,152,104,77,0
27.671206148,813,829,70,194,295,151,192,152,97,69,0
27.694195775,814,830,60,144,216,140,193,148,96,70,0
27.717162442,815,831,57,125,187,133,183,130,84,62,0
27.731310949,815,831,55,143,184,121,169,127,78,56,0
27.754239379,816,832,46,106,186,130,161,130,81,60,0
27.776760153,817,833,44,103,174,138,179,137,87,59,0
27.791453003,817,833,45,102,125,154,182,145,91,56,0
27.822666025,818,834,48,111,106,148,172,144,91,59,0
27.836479407,818,834,53,94,100,142,165,139,91,63,0
27.851437153,819,835,58,104,98,143,156,127,89,65,0
27.874184897,819,835,64,159,83,141,163,135,95,73,0
27.896379514,820,836,64,171,84,117,175,137,96,74,0
27.911482485,821,837,63,165,100,128,178,147,102,77,0
27.942440186,822,838,56,163,99,133,196,143,106,79,0
27.956420379,822,838,54,166,93,132,208,136,103,76,0
27.971381180,822,838,54,132,155,131,184,112,93,68,0
27.994116120,823,839,57,123,173,126,182,110,90,70,0
28.033143815,824,840,59,131,167,131,194,104,93,68,0
28.037546591,824,840,61,128,169,131,171,106,90,66,0
28.053697020,825,841,61,143,169,119,170,120,98,66,0
28.076534102,826,842,63,139,122,110,183,153,110,78,0
28.091638662,826,842,62,133,92,120,194,157,120,82,0
28.114459979,827,843,57,128,76,102,185,164,121,82,0
28.136408713,827,843,60,127,73,96,207,193,141,92,0
28.159686447,828,844,63,98,69,107,202,194,144,98,0
28.174190114,829,845,52,82,59,118,200,165,133,89,0
28.196352281,829,845,52,94,55,110,186,154,126,86,0
28.220185996,830,846,60,98,62,113,189,149,123,89,0
28.233716342,830,846,60,106,63,119,189,117,102,89,0
28.256361518,831,847,55,106,82,126,202,102,87,77,0
28.280355042,832,848,55,106,86,121,209,124,91,77,0
28.293667144,832,848,85,111,96,119,200,130,93,108,0
28.316604511,833,849,83,116,143,121,209,138,103,113,0
28.339799494,833,849,90,134,174,118,205,142,110,106,0
28.353812223,834,850,90,133,172,96,200,146,113,107,0
28.377060700,835,851,89,136,185,111,188,129,107,107,0
28.398720009,835,851,63,131,193,122,200,133,108,77,0
28.414414491,836,852,62,133,173,116,195,125,95,64,0
28.437021878,836,852,59,130,157,120,178,117,85,66,0
28.459340113,837,853,65,137,158,123,163,111,85,70,0
28.473777242,837,853,68,149,158,116,160,119,91,82,0
28.496206161,838,854,65,157,187,130,141,108,88,82,0
28.520584077,839,855,68,154,190,136,123,108,91,83,0
28.533715754,839,855,90,152,201,137,104,99,86,82,0
28.556506420,840,856,106,192,226,145,128,101,89,83,0
28.579029871,841,857,109,187,232,153,148,109,91,71,0
28.594173408,841,857,111,219,240,139,162,121,97,79,0
28.616561102,842,858,122,232,322,134,163,114,102,89,0
28.639296626,842,858,103,234,320,147,179,115,105,89,0
28.662620120,843,859,87,198,325,189,196,125,105,90,0
28.676899071,843,859,85,207,326,188,182,118,106,102,0
28.699410524,844,860,101,221,369,191,183,112,102,95,0
28.714216293,845,861,99,246,337,202,185,111,98,85,0
28.736769965,845,861,120,261,368,194,174,124,104,82,0
28.758827131,846,862,125,275,390,160,137,128,114,85,0
28.774736755,846,862,126,283,426,155,142,147,119,81,0
28.796993895,847,863,121,251,385,146,139,142,117,103,0
28.818960151,848,864,115,255,356,141,141,145,118,112,0
28.833629905,848,864,95,240,317,137,139,140,117,119,0
28.856719821,849,865,103,256,337,130,138,129,107,115,0
28.878868061,849,865,116,243,283,121,136,121,108,121,0
28.902815465,850,866,109,233,293,126,129,130,108,107,0
28.916734313,851,867,122,213,361,123,147,152,105,100,0
28.938884971,851,867,132,225,377,136,157,162,108,100,0
28.953911765,852,868,117,188,321,142,165,166,106,96,0
28.978441090,852,868,103,201,325,144,158,154,95,84,0
28.998883363,853,869,111,244,348,159,152,151,98,84,0
29.013733679,853,869,90,224,286,157,130,127,99,81,0
29.036333595,854,870,76,202,304,167,127,108,88,68,0
29.058852079,855,871,77,203,323,168,118,94,85,69,0
29.074075551,855,871,85,235,350,172,137,98,96,70,0
29.105069139,856,872,74,214,321,154,147,102,98,64,0
29.119041466,857,873,76,225,339,152,147,103,98,66,0
29.142037406,857,873,73,232,320,141,161,125,105,71,0
29.156893724,858,874,72,235,314,195,184,130,106,73,0
29.179005850,858,874,65,210,313,229,179,131,95,65,0
29.202119676,859,875,65,207,315,254,205,134,86,64,0
29.216219377,859,875,63,197,298,265,214,139,83,64,0
29.247091877,860,876,65,210,298,267,214,125,92,72,0
29.261819643,861,877,64,209,302,231,189,125,95,73,0
29.276679305,861,877,54,216,336,220,189,125,96,73,0
29.307099175,862,878,55,207,364,198,176,127,97,72,0
29.330200376,863,879,53,230,375,247,174,119,92,69,0
29.336530294,863,879,52,217,388,308,209,124,77,56,0
29.358868530,864,880,63,219,394,335,224,120,70,55,0
29.382475448,865,881,70,230,405,369,229,112,64,53,0
29.396412599,865,881,65,234,387,375,244,95,56,47,0
29.418684528,866,882,69,205,384,346,255,105,65,57,0
29.441543359,866,882,68,204,366,354,214,100,68,58,0
29.456391595,867,883,63,238,375,401,223,100,65,53,0
29.478884660,867,883,62,206,306,398,240,123,73,61,0
29.501480322,868,884,67,197,281,398,232,130,76,66,0
29.516771917,869,885,72,237,356,395,215,122,71,62,0
29.538875174,869,885,69,253,362,348,210,120,73,63,0
29.561549276,870,886,64,230,343,304,209,130,80,64,0
29.576234234,870,886,69,258,366,260,185,115,73,59,0
29.600049408,871,887,75,281,384,303,190,116,73,54,0
29.622046417,872,888,78,270,345,324,192,118,72,56,0
29.636518250,872,888,79,255,347,366,199,122,67,53,0
29.658869568,873,889,83,279,384,345,188,118,59,52,0
29.681936200,873,889,81,265,386,345,189,111,56,51,0
29.697100784,874,890,76,249,377,370,172,107,56,58,0
29.718819304,875,891,73,251,349,372,197,127,65,57,0
29.741893642,875,891,78,256,348,355,195,124,63,59,0
29.756364992,876,892,76,228,321,357,191,116,61,59,0
29.778970291,876,892,74,227,297,381,218,116,61,59,0
29.802374849,877,893,73,216,325,317,215,119,64,53,0
29.816420667,877,893,71,221,322,293,188,99,56,50,0
29.838718527,878,894,72,231,326,259,185,98,65,54,0
29.861370168,879,895,73,234,311,276,190,102,66,54,0
29.884620575,879,895,68,218,331,254,188,121,70,54,0
29.899010533,880,896,70,224,295,268,196,119,69,55,0
29.922062745,881,897,69,207,298,298,208,115,65,53,0
29.944734804,881,897,64,204,337,366,232,107,56,44,0
29.959313195,882,898,61,199,339,374,256,103,56,44,0
29.990123659,883,899,64,196,338,416,250,80,50,45,0
29.997116610,883,899,61,193,355,416,250,80,44,41,0
30.019013537,884,900,59,200,335,401,247,96,55,45,0
30.041654931,884,900,59,192,338,380,267,117,60,45,0
30.064520951,885,901,61,193,337,348,248,123,65,46,0
30.079134759,885,901,59,203,354,299,225,121,65,43,0
30.101287888,886,902,58,196,344,301,219,121,68,45,0
30.125206581,886,903,53,179,372,330,214,110,61,40,0
30.140158965,887,903,49,180,322,361,171,92,59,41,0
30.161302865,888,905,47,175,373,409,172,85,52,41,0
30.184669346,888,905,43,165,364,410,174,89,54,39,0
30.199161894,889,906,54,230,469,438,163,83,51,39,0
30.221827101,890,907,58,231,466,410,169,80,47,40,0
30.251902349,890,907,64,242,466,346,185,99,50,39,0
30.258856737,891,908,71,261,437,318,175,106,59,44,0
30.281539820,891,908,74,271,422,306,177,107,64,51,0
30.305144718,892,909,76,239,329,280,188,126,81,59,0
30.318776950,892,909,75,254,320,282,208,126,82,58,0
30.357686342,894,911,76,279,335,314,199,113,82,61,0
30.364488518,894,911,70,312,329,334,207,114,79,59,0
30.378814491,894,911,67,316,318,345,203,113,75,55,0
30.401783700,895,912,60,330,350,345,188,95,58,48,0
30.424751789,896,913,73,351,393,380,189,93,60,51,0
30.439107236,896,913,95,340,463,365,194,103,65,61,0
30.461328086,897,914,102,307,484,347,193,98,61,61,0
30.484491991,897,914,110,327,551,378,210,98,59,63,0
30.498834450,898,915,113,328,537,402,216,127,77,67,0
30.522036322,899,916,112,307,525,397,194,132,77,67,0
30.544493023,899,916,114,329,552,472,213,126,73,64,0
30.558995384,900,917,115,333,574,504,229,127,79,69,0
30.581267500,900,917,115,337,558,494,218,133,82,71,0
30.604469321,901,918,120,345,606,500,219,108,73,72,0
30.618958505,901,918,127,343,644,497,218,106,77,77,0
30.641404728,902,919,108,301,619,440,199,111,76,72,0
30.664411172,903,920,109,333,589,395,177,113,73,69,0
30.678994973,903,920,114,319,561,393,178,111,82,71,0
30.701373999,904,921,103,299,527,361,170,113,80,66,0
30.732359269,905,922,93,326,501,351,163,114,84,72,0
30.747125052,905,922,113,366,485,359,136,102,85,73,0
30.761322608,906,923,110,355,503,410,152,101,90,73,0
30.784992937,906,923,114,359,522,456,150,99,85,71,0
30.799406125,907,924,122,369,550,482,160,89,80,74,0
30.821421779,907,924,148,457,540,505,174,91,78,79,0
30.844452920,908,925,137,441,578,491,199,102,88,86,0
30.858882452,909,926,151,495,633,488,204,115,92,98,0
30.881639921,909,926,144,493,610,465,209,123,98,108,0
30.904885958,910,927,157,548,626,474,219,129,104,115,0
30.919234199,910,927,135,460,619,534,231,129,104,108,0
30.941743735,911,928,136,479,582,562,219,121,102,110,0
30.964721132,912,929,123,408,517,531,202,133,101,106,0
30.979217493,912,929,126,411,519,515,200,148,116,105,0
31.001394369,913,930,128,357,458,491,211,165,129,122,0
31.024802278,914,931,125,393,478,396,197,174,136,121,0
31.047378363,914,931,121,346,440,391,212,185,139,120,0
31.061286627,915,932,120,334,445,386,221,178,144,131,0
31.084219300,915,932,123,331,495,399,223,164,132,126,0
31.107156822,916,933,113,320,455,410,213,148,125,102,0
31.122184254,916,933,109,272,460,423,222,152,142,109,0
31.144002717,917,934,113,293,485,399,205,143,138,107,0
31.167106305,918,935,115,289,456,385,187,132,132,97,0
31.190218969,918,935,116,275,526,390,194,135,152,110,0
31.203806982,919,936,105,250,548,365,182,130,148,109,0
31.227609613,920,937,108,237,534,388,162,114,130,105,0
31.241572635,920,937,106,249,503,369,154,129,136,106,0
31.263843692,921,938,104,260,519,406,145,129,140,101,0
31.287530586,921,938,93,265,450,362,111,119,115,86,0
31.301325202,922,939,97,272,505,406,111,124,121,90,0
31.323792736,922,939,96,290,470,365,102,130,120,87,0
31.347850763,923,940,92,270,485,355,98,125,116,79,0
31.361408833,923,940,87,273,537,330,148,127,107,74,0
31.383779661,924,941,82,272,487,331,166,133,116,75,0
31.414689723,925,942,78,258,438,259,166,125,104,66,0
31.429510410,926,943,71,252,455,246,169,113,94,63,0
31.443786465,926,943,77,246,458,244,173,93,82,61,0
31.467325245,927,944,78,252,368,232,205,131,99,75,0
31.482448203,927,944,77,234,357,208,207,137,92,70,0
31.503916582,928,945,71,219,315,199,203,139,92,73,0
31.527015566,929,946,71,214,349,191,206,141,92,72,0
31.541625300,929,946,65,207,331,182,212,155,98,73,0
31.564217783,930,947,62,175,324,171,163,126,80,61,0
31.587028342,930,947,65,165,317,181,151,108,74,57,0
31.601287695,931,948,62,175,340,176,152,113,83,57,0
31.623894342,931,948,81,189,320,189,166,127,98,73,0
31.646980125,932,949,82,188,340,205,166,116,96,81,0
31.661243956,932,949,82,185,352,214,159,115,96,81,0
31.691941420,933,950,79,198,357,217,166,141,108,86,0
31.714624369,934,951,81,189,410,228,168,138,110,88,0
31.721215491,934,951,62,159,370,216,147,123,100,74,0
31.744409774,935,952,63,158,352,220,135,125,105,65,0
31.774622724,936,953,58,155,342,211,146,123,107,65,0
31.781391092,936,953,59,169,367,210,145,103,103,63,0
31.803800318,937,954,54,174,260,202,138,104,94,57,0
31.826982939,937,954,54,186,291,209,159,113,101,61,0
31.849475683,938,955,60,216,292,230,190,129,108,73,0
31.863869766,939,956,62,215,282,221,177,136,109,74,0
31.887150903,939,956,61,208,254,219,168,131,102,68,0
31.901253928,940,957,62,191,258,205,174,132,108,70,0
31.923665094,940,957,63,207,224,195,165,136,102,70,0
31.946941732,941,958,52,176,212,146,128,114,87,59,0
31.970114813,942,959,51,179,209,142,138,108,90,65,0
31.983824581,942,959,59,159,255,134,132,117,108,75,0
32.007272488,943,960,61,183,260,132,133,129,107,78,0
32.030053703,944,961,57,138,251,125,121,118,104,76,0
32.043845389,944,961,59,145,276,129,118,119,104,77,0
32.067376537,945,962,67,165,307,122,102,117,95,74,0
32.089996668,945,962,62,165,254,109,105,114,86,69,0
32.104419287,946,963,61,154,302,104,94,105,94,67,0
32.128129812,946,963,69,165,324,113,108,102,94,79,0
32.149643802,947,964,101,162,312,114,108,100,104,136,0
32.163826237,948,965,97,141,307,132,109,96,110,137,0
32.195223872,948,965,97,156,318,138,114,80,116,137,0
32.210445916,949,966,94,144,305,137,120,74,104,137,0
32.223800285,949,966,89,136,311,142,109,84,103,131,0
32.246962808,950,967,51,123,288,131,112,89,99,80,0
32.269661660,951,968,48,117,265,113,112,91,100,82,0
32.283975745,951,968,51,86,272,114,109,94,92,86,0
32.307287430,952,969,54,120,235,121,118,97,97,93,0
32.329668913,952,969,53,132,249,114,119,97,102,92,0
32.344212204,953,970,56,135,252,113,117,99,104,90,0
32.367027940,954,971,57,136,262,111,126,110,98,86,0
32.389431369,954,971,56,136,243,105,127,117,92,78,0
32.403955792,955,972,55,108,235,96,111,114,85,68,0
32.426777634,955,972,55,83,170,83,102,107,80,67,0
32.449412842,956,973,51,72,151,72,101,105,71,60,0
32.464207590,957,974,54,64,112,63,87,95,67,54,0
32.486383099,957,974,50,60,96,56,77,94,68,50,0
32.511117945,958,975,58,46,78,83,73,92,70,51,0
32.523819117,958,975,66,60,78,139,85,98,71,52,0
32.546716596,959,976,130,62,71,197,93,106,69,50,0
32.570141749,960,977,156,68,72,237,100,108,69,54,0
32.583946238,960,977,160,93,91,261,128,107,66,55,0
32.610571039,961,978,161,89,99,292,159,117,67,54,0
32.629520253,961,978,179,91,101,296,165,113,66,56,0
32.651934543,962,979,149,92,107,311,163,99,62,55,0
32.667015226,962,979,157,105,133,432,170,93,63,54,0
32.689583984,963,980,159,92,132,437,173,108,73,60,0
32.703780695,964,981,161,94,150,454,156,104,73,61,0
32.726325085,964,981,161,97,198,474,157,108,73,63,0
32.749588975,965,982,159,108,200,460,155,109,75,68,0
32.763949305,965,982,143,109,211,423,182,120,114,151,0
32.786256714,966,983,140,103,209,426,166,106,110,155,0
32.809593814,967,984,142,106,208,405,185,113,112,172,0
32.823690653,967,984,159,102,179,407,203,129,119,175,0
32.846390880,968,985,167,91,175,411,215,134,129,180,0
32.869522424,969,986,158,73,146,336,194,126,109,145,0
32.893021278,969,986,159,80,166,332,201,128,107,137,0
32.914509521,970,987,173,94,156,313,187,120,103,118,0
32.930123906,970,987,151,91,140,317,158,96,93,115,0
32.952559752,971,988,139,92,146,321,146,92,82,109,0
32.966353943,971,988,148,118,197,304,136,86,65,75,0
32.989476873,972,989,150,132,183,306,140,84,70,105,0
33.011931608,973,990,135,133,212,306,148,97,80,118,0
33.026386396,973,990,152,134,210,244,166,107,85,123,0
33.049599438,974,991,154,146,229,202,170,111,81,121,0
33.079714411,975,992,142,142,191,186,178,108,79,134,0
33.086417867,975,992,141,144,194,133,165,102,70,124,0
33.111343266,976,993,133,147,206,108,150,93,66,120,0
33.132339069,976,993,112,153,235,102,130,82,63,118,0
33.146234591,977,994,106,142,221,89,153,79,64,118,0
33.169880503,977,994,129,135,223,86,147,80,67,118,0
33.192089500,978,995,155,128,224,83,142,83,71,108,0
33.206249176,979,996,158,132,196,80,153,74,64,103,0
33.230369746,979,996,158,212,186,93,151,74,62,101,0
33.252665455,980,997,175,241,214,119,121,71,64,105,0
33.266924381,980,997,173,284,264,149,136,77,64,95,0
33.291838475,981,998,179,298,373,205,144,71,60,98,0
33.312330802,982,999,173,302,387,256,163,96,67,92,0
33.326336567,982,999,164,270,406,256,183,105,71,97,0
33.349408204,983,1000,148,261,425,258,180,108,71,91,0
33.372003153,983,1000,129,237,486,257,164,106,69,79,0
33.386269979,984,1001,91,229,425,230,162,112,70,76,0
33.410228596,985,1002,100,225,465,193,130,89,65,83,0
33.432336841,985,1002,97,209,449,223,131,96,68,73,0
33.446865994,986,1003,91,208,453,220,142,98,68,69,0
33.469610853,986,1003,102,220,371,222,154,100,77,91,0
33.492235323,987,1004,94,218,363,211,175,111,77,93,0
33.507248968,988,1005,87,211,286,228,182,127,82,90,0
33.529538452,988,1005,86,215,357,228,176,130,78,89,0
33.552147360,989,1006,94,211,328,225,166,130,90,104,0
33.566205177,989,1006,155,172,341,220,155,125,83,100,0
33.590187728,990,1007,166,161,332,218,131,111,82,115,0
33.612178683,991,1008,236,170,332,185,127,94,76,122,0
33.626265646,991,1008,239,154,243,177,105,69,74,124,0
33.649487041,992,1009,241,139,255,182,107,67,64,137,0
33.672565657,993,1010,208,138,205,221,121,80,91,139,0
33.686460925,993,1010,233,133,192,249,126,85,91,133,0
33.709523666,994,1011,184,103,187,295,133,92,93,128,0
33.732038617,994,1011,187,108,186,364,140,99,110,142,0
33.746325374,995,1012,196,98,125,376,150,101,117,120,0
33.769069715,995,1012,192,84,125,374,181,108,99,119,0
33.792058605,996,1013,153,88,140,375,206,123,106,136,0
33.806446670,997,1014,143,112,161,348,222,131,113,137,0
33.829349871,997,1014,172,113,165,290,230,128,111,166,0
33.859608425,998,1015,155,113,165,268,231,138,115,174,0
33.876432412,999,1016,153,124,187,254,209,136,116,168,0
33.888951592,999,1016,182,115,175,252,190,129,112,149,0
33.912060901,1000,1017,174,97,160,258,180,129,108,150,0
33.934413958,1000,1017,136,87,144,220,169,131,108,115,0
33.949228645,1001,1018,136,90,144,218,172,141,99,131,0
33.972199618,1001,1018,136,79,115,207,167,138,100,137,0
33.994553684,1002,1019,81,78,114,194,157,129,114,141,0
34.008982081,1003,1020,69,86,133,169,150,118,120,167,0
34.032359256,1003,1020,63,85,137,191,154,118,112,160,0
34.054531463,1004,1021,55,77,134,188,145,104,107,138,0
34.069105367,1004,1021,50,78,131,187,155,116,105,131,0
34.092039386,1005,1022,46,79,136,218,157,121,85,125,0
34.114606491,1006,1023,63,61,100,219,141,117,75,116,0
34.129102601,1006,1023,110,138,137,201,162,115,72,114,0
34.152703701,1007,1024,114,145,171,278,170,101,70,113,0
34.190542515,1008,1025,124,210,210,284,174,79,68,112,0
34.193038765,1008,1025,129,216,212,248,188,81,67,112,0
34.212250292,1009,1026,129,220,237,250,196,88,61,71,0
34.234965470,1009,1026,111,195,246,254,177,87,59,67,0
34.249204569,1010,1027,111,197,251,170,175,85,55,62,0
34.272378784,1010,1027,102,150,228,152,161,84,52,57,0
34.294606608,1011,1028,101,167,258,191,149,90,58,58,0
34.309323398,1012,1029,88,170,242,202,152,89,60,61,0
34.332557227,1012,1029,69,162,255,201,154,96,62,58,0
34.354633747,1013,1030,82,175,244,216,144,96,65,87,0
34.368892666,1013,1030,83,174,242,213,142,98,67,89,0
34.392167818,1014,1031,82,157,224,201,141,87,67,93,0
34.415104482,1015,1032,82,153,223,199,137,88,66,90,0
34.428999776,1015,1032,84,154,225,206,142,81,64,89,0
34.452470055,1016,1033,92,157,250,190,137,85,64,74,0
34.474539457,1017,1034,96,142,245,203,144,85,68,74,0
34.489032033,1017,1034,93,133,227,176,159,117,67,72,0
34.527597918,1018,1035,96,129,224,164,167,118,70,79,0
34.534643661,1018,1035,100,157,206,181,170,122,73,84,0
34.549292103,1019,1036,79,164,189,202,184,123,74,74,0
34.572023981,1019,1036,73,167,203,188,188,123,67,73,0
34.594578980,1020,1037,90,177,220,198,175,101,67,72,0
34.608912318,1020,1037,93,184,232,205,172,119,72,99,0
34.632080312,1021,1038,82,154,220,205,171,131,77,100,0
34.654643787,1022,1039,82,140,225,198,177,134,77,105,0
34.669036840,1022,1039,83,126,233,243,183,139,86,107,0
34.692025459,1023,1040,73,113,252,252,179,129,84,107,0
34.714858799,1024,1041,93,121,245,243,169,107,73,87,0
34.728837439,1024,1041,95,147,292,231,171,99,69,82,0
34.752336737,1025,1042,93,135,289,234,149,95,67,76,0
34.774553887,1025,1042,96,142,277,183,127,85,62,88,0
34.797077814,1026,1043,127,142,245,169,136,96,87,89,0
34.812077150,1027,1044,110,156,259,199,152,98,93,83,0
34.834956723,1027,1044,116,164,290,189,150,97,94,88,0
34.857075993,1028,1045,120,163,273,177,171,102,95,99,0
34.874157971,1028,1045,127,168,281,198,173,107,95,86,0
34.894553348,1029,1046,104,167,291,200,163,102,78,90,0
34.917096993,1030,1047,109,164,288,201,147,108,73,93,0
34.932034225,1030,1047,123,137,196,207,141,108,78,103,0
34.962512343,1031,1048,150,153,235,225,124,107,81,104,0
34.979812926,1032,1049,184,155,227,223,121,105,102,128,0
34.992124391,1032,1049,181,180,233,215,126,107,104,130,0
35.014434149,1033,1050,181,165,250,187,133,99,107,136,0
35.039820081,1033,1050,170,173,264,182,128,92,99,124,0
35.051229817,1034,1051,173,159,238,170,132,99,102,118,0
35.074494917,1034,1051,129,164,266,153,200,127,97,116,0
35.097177976,1035,1052,130,162,269,156,229,157,108,143,0
35.111439777,1035,1052,128,163,244,227,249,175,131,175,0
35.134547701,1036,1053,127,152,216,255,259,185,141,179,0
35.157464041,1037,1054,87,164,259,268,257,184,138,180,0
35.171383871,1037,1054,85,171,231,273,266,175,145,215,0
35.195175962,1038,1055,80,166,220,277,285,210,136,201,0
35.217384060,1039,1056,93,178,218,281,267,200,121,195,0
35.231224222,1039,1056,113,241,290,294,272,201,168,222,0
35.254466067,1040,1057,142,260,246,286,282,196,170,226,0
35.277000941,1040,1057,148,249,249,290,234,188,155,185,0
35.291592937,1041,1058,146,243,246,305,202,140,156,181,0
35.314729374,1041,1058,138,247,251,280,204,151,149,157,0
35.337417792,1042,1059,120,198,215,253,188,153,94,117,0
35.351213299,1043,1060,81,170,210,252,182,159,93,111,0
35.375209193,1043,1060,71,180,221,247,193,164,105,106,0
35.397616590,1044,1061,73,180,219,242,183,162,106,106,0
35.411283357,1044,1061,66,164,214,244,189,167,109,103,0
35.435100190,1045,1062,77,157,224,232,185,157,104,104,0
35.459714493,1046,1063,81,164,232,259,175,156,105,104,0
35.471257401,1046,1063,78,156,221,287,168,158,102,115,0
35.494484655,1047,1064,78,159,232,280,147,142,101,128,0
35.516992735,1048,1065,122,166,232,254,138,123,108,144,0
35.540116062,1048,1065,123,192,204,263,141,116,102,141,0
35.554538156,1049,1066,122,176,204,218,154,113,102,143,0
35.577081374,1049,1066,129,181,196,200,179,97,106,161,0
35.591551165,1050,1067,127,168,192,199,184,87,103,152,0
35.614649378,1051,1068,97,155,195,216,198,102,123,184,0
35.637021246,1051,1068,90,115,173,201,202,121,132,191,0
35.651488576,1052,1069,98,166,173,219,220,132,134,190,0
35.674904493,1052,1069,95,163,217,201,199,139,133,177,0
35.697158972,1053,1070,98,167,228,201,199,151,139,180,0
35.711785095,1053,1070,92,174,234,199,182,142,114,131,0
35.734590771,1054,1071,91,181,226,199,175,133,116,130,0
35.758848771,1055,1072,89,145,237,195,132,124,110,132,0
35.780395896,1055,1072,117,154,233,184,119,123,110,123,0
35.794848384,1056,1073,117,156,218,198,127,132,107,117,0
35.824463460,1057,1074,120,210,216,187,145,144,113,126,0
35.839494624,1057,1074,120,228,222,188,151,137,107,142,0
35.854436354,1057,1074,117,232,201,206,156,138,103,141,0
35.877303357,1058,1075,96,224,185,211,157,131,93,137,0
35.907067785,1059,1076,96,233,205,183,150,113,90,152,0
35.914514429,1059,1076,90,199,208,174,148,104,80,150,0
35.936998596,1060,1077,91,170,201,172,140,115,72,127,0
35.959549870,1061,1078,98,175,239,171,147,113,72,121,0
35.974880883,1061,1078,102,173,218,180,160,120,71,126,0
35.997618834,1062,1079,104,179,226,187,155,119,75,109,0
36.019692279,1063,1080,106,159,219,194,162,136,90,103,0
36.034592747,1063,1080,108,172,244,194,159,134,98,121,0
36.056988924,1064,1081,99,163,225,184,156,130,99,125,0
36.080004573,1064,1081,86,173,232,184,153,127,122,132,0
36.094566449,1065,1082,99,155,230,204,163,136,121,153,0
36.117043541,1065,1082,117,177,243,194,136,119,120,153,0
36.147015310,1066,1083,116,172,222,193,138,116,120,142,0
36.155208080,1067,1084,115,182,230,186,153,134,125,143,0
36.177563736,1067,1084,115,174,223,167,144,128,104,134,0
36.202378109,1068,1085,118,179,212,130,129,116,102,111,0
36.213769640,1068,1085,102,167,206,147,145,123,95,108,0
36.244587854,1069,1086,95,168,201,142,147,119,89,114,0
36.260477107,1070,1087,92,153,172,122,121,102,82,112,0
36.273863860,1070,1087,99,145,175,128,121,112,79,105,0
36.297086301,1071,1088,89,163,212,126,134,113,78,99,0
36.319666565,1071,1088,94,155,216,105,128,104,79,114,0
36.333761789,1072,1089,94,177,222,107,127,104,77,101,0
36.357723660,1073,1090,99,193,222,102,122,99,79,97,0
36.379623225,1073,1090,97,206,234,108,130,104,86,101,0
36.393773651,1074,1091,107,192,193,111,136,106,83,99,0
36.417463950,1074,1091,99,199,181,129,133,99,78,90,0
36.440026072,1075,1092,104,185,182,136,140,107,81,92,0
36.453871926,1076,1093,102,162,210,142,161,132,89,98,0
36.477197867,1076,1093,95,170,280,132,153,134,88,96,0
36.499442308,1077,1094,68,177,272,147,143,131,86,96,0
36.513794163,1077,1094,82,167,268,132,140,133,86,81,0
36.545524840,1078,1095,97,181,273,118,136,134,87,97,0
36.559612300,1079,1096,100,187,256,109,113,113,78,94,0
36.573833825,1079,1096,104,189,210,112,105,99,72,94,0
36.597608733,1080,1097,109,177,212,97,112,123,86,101,0
36.619970380,1080,1097,107,204,267,109,160,153,110,149,0
36.633872212,1081,1098,93,198,295,113,172,162,113,140,0
36.657586050,1082,1099,94,194,325,119,174,159,110,142,0
36.679625283,1082,1099,96,185,307,117,175,158,107,141,0
36.702708411,1083,1100,103,205,323,129,190,171,139,179,0
36.717095542,1083,1100,99,209,319,122,173,147,122,146,0
36.746901531,1084,1101,98,210,318,117,170,135,117,150,0
36.762237560,1085,1102,93,217,290,111,168,138,118,151,0
36.778538836,1085,1102,92,226,277,114,184,153,132,163,0
36.799697760,1086,1103,82,230,313,108,181,146,100,130,0
36.822529740,1086,1103,75,207,288,100,156,136,100,126,0
36.837135244,1087,1104,80,199,254,100,142,132,97,120,0
36.859459260,1088,1105,90,197,279,117,142,131,95,114,0
36.882246203,1088,1105,90,192,328,121,123,114,77,97,0
36.896791985,1089,1106,92,161,277,112,116,122,91,104,0
36.920312941,1089,1106,103,162,270,111,124,133,94,108,0
36.942062414,1090,1107,110,183,272,113,119,130,93,108,0
36.959911995,1091,1108,129,207,258,109,121,129,98,106,0
36.979842035,1091,1108,138,220,306,134,124,132,98,104,0
37.002079854,1092,1109,148,266,360,198,103,91,70,72,0
37.016568037,1092,1109,148,263,384,266,105,74,64,62,0
37.039431158,1093,1110,140,240,386,281,112,81,65,55,0
37.062112363,1094,1111,120,232,386,289,111,81,62,66,0
37.076833321,1094,1111,171,227,350,275,103,77,67,100,0
37.099724947,1095,1112,186,201,339,246,93,74,70,104,0
37.122039800,1095,1112,195,233,325,177,81,77,68,111,0
37.136478051,1096,1113,212,244,370,155,91,82,70,140,0
37.159621744,1097,1114,221,234,403,169,116,83,69,156,0
37.191021691,1098,1115,182,224,377,167,119,80,64,151,0
37.197074622,1098,1115,162,218,352,154,120,80,67,155,0
37.219721376,1098,1115,145,189,361,175,135,90,70,154,0
37.242037832,1099,1116,120,175,406,205,218,146,90,135,0
37.257451940,1100,1117,139,214,503,246,234,165,108,125,0
37.279478267,1100,1117,162,261,524,259,241,170,115,122,0
37.302153728,1101,1118,164,269,528,261,257,173,112,114,0
37.316779536,1101,1118,164,277,518,254,252,170,112,112,0
37.339535271,1102,1119,171,301,508,275,181,126,111,121,0
37.363889480,1103,1120,150,283,465,265,149,121,106,134,0
37.376725206,1103,1120,126,241,476,281,167,132,110,137,0
37.407432562,1104,1122,121,218,516,289,144,129,111,139,0
37.422343246,1104,1122,130,218,601,313,153,139,118,143,0
37.436473966,1105,1123,122,233,615,304,151,136,106,132,0
37.460632941,1106,1124,285,227,608,273,158,127,100,120,0
37.482085129,1106,1124,315,224,577,266,131,110,96,132,0
37.497007898,1107,1125,323,265,542,265,135,113,97,133,0
37.523363355,1107,1125,341,267,455,231,123,101,96,176,0
37.542993370,1108,1126,349,249,433,206,120,97,99,222,0
37.556449595,1108,1126,244,267,383,225,112,82,97,222,0
37.579479713,1109,1127,210,269,452,219,120,85,94,212,0
37.602026244,1110,1128,207,266,494,228,126,87,95,217,0
37.619600529,1110,1128,197,273,546,257,127,86,96,233,0
37.639539548,1111,1129,200,285,571,326,145,93,90,197,0
37.662044672,1112,1130,203,269,581,316,144,105,90,191,0
37.692160139,1112,1130,211,289,537,334,172,107,96,207,0
37.699714002,1113,1131,213,293,523,328,174,120,101,211,0
37.721964304,1113,1131,197,294,487,329,176,120,99,176,0
37.744873552,1114,1132,191,304,406,272,184,126,101,168,0
37.760012731,1114,1132,174,319,401,301,201,123,102,174,0
37.782256459,1115,1133,154,324,433,297,177,125,104,166,0
37.804703025,1116,1134,141,310,474,303,181,110,97,153,0
37.819417149,1116,1134,145,309,532,301,183,118,109,161,0
37.842197155,1117,1135,140,309,596,376,209,126,116,165,0
37.871843193,1118,1136,159,304,575,365,214,140,120,174,0
37.879658722,1118,1136,166,306,603,391,239,157,118,164,0
37.902046518,1119,1137,165,312,606,421,248,170,125,182,0
37.924534880,1119,1137,163,323,556,412,248,169,116,167,0
37.939500424,1120,1138,160,301,504,347,229,171,121,171,0
37.961992699,1121,1139,141,293,529,362,220,159,117,159,0
37.984822619,1121,1139,150,311,492,322,195,142,111,176,0
37.999465417,1122,1140,158,306,436,313,176,131,103,163,0
38.021871439,1122,1140,156,343,536,378,183,129,96,150,0
38.047218581,1123,1141,180,370,559,427,159,113,77,159,0
38.074569918,1124,1142,186,387,555,401,151,107,75,168,0
38.082716646,1124,1142,193,372,554,430,159,109,67,149,0
38.112033750,1125,1143,192,392,584,422,168,114,72,155,0
38.118847342,1125,1143,190,384,489,361,156,105,74,167,0
38.142747457,1126,1144,188,355,455,301,166,105,74,156,0
38.164503936,1126,1144,209,381,447,339,159,103,73,155,0
38.179665993,1127,1145,192,396,508,294,142,97,78,160,0
38.202018685,1128,1146,192,392,471,271,133,81,70,150,0
38.232124173,1129,1147,200,350,487,284,146,95,86,144,0
38.247852791,1129,1147,190,366,513,293,148,109,96,154,0
38.262165238,1130,1148,182,327,550,249,142,113,96,152,0
38.284533191,1130,1148,197,288,468,251,145,114,93,143,0
38.299208318,1131,1149,188,247,448,243,137,114,98,140,0
38.322195241,1131,1149,172,242,415,234,147,117,90,133,0
38.346932494,1132,1150,156,206,357,207,156,110,81,113,0
38.358772467,1132,1150,118,174,251,201,177,137,85,87,0
38.382255587,1133,1151,92,177,241,196,197,145,88,84,0
38.405143519,1134,1152,86,168,236,181,208,157,94,76,0
38.418948320,1134,1152,89,170,198,182,205,156,94,68,0
38.444606261,1135,1153,86,203,257,171,198,170,109,105,0
38.464712667,1136,1154,85,203,260,162,201,156,109,111,0
38.486848363,1136,1154,67,183,250,165,193,153,114,111,0
38.502774919,1137,1155,73,202,252,203,209,159,116,113,0
38.525055739,1137,1155,63,213,264,198,207,164,116,117,0
38.540486711,1138,1156,63,200,239,203,216,166,115,101,0
38.577638106,1139,1157,63,203,233,206,207,169,114,105,0
38.591964966,1139,1157,69,210,232,211,260,205,143,116,0
38.608150153,1140,1158,67,189,216,202,309,219,147,119,0
38.622000324,1140,1158,67,202,211,220,304,213,145,119,0
38.644535813,1141,1159,67,202,225,220,322,210,141,107,0
38.666906560,1142,1160,80,237,230,232,328,214,141,107,0
38.682549227,1142,1160,86,260,255,240,300,187,107,98,0
38.704717054,1143,1161,87,278,295,249,260,184,124,108,0
38.726969759,1143,1161,88,264,286,259,303,207,135,105,0
38.742159649,1144,1162,86,246,257,287,301,207,141,109,0
38.765177808,1145,1163,81,208,249,296,311,213,147,106,0
38.787653845,1145,1163,72,177,220,295,305,216,149,103,0
38.801319942,1146,1164,69,155,181,283,296,219,143,115,0
38.824467876,1146,1164,76,180,222,273,261,211,158,121,0
38.854657396,1147,1165,81,209,204,239,265,216,157,126,0
38.862007071,1147,1165,80,218,210,222,261,213,160,126,0
38.884561325,1148,1166,79,213,206,199,306,225,162,126,0
38.907169115,1149,1167,83,223,198,183,297,216,154,142,0
38.922150181,1149,1167,75,202,174,161,305,215,136,141,0
38.944750416,1150,1168,70,167,173,182,318,217,138,142,0
38.968050896,1151,1169,68,165,164,206,309,206,146,150,0
38.982091387,1151,1169,70,167,165,210,280,192,148,154,0
39.004711414,1152,1170,70,147,151,206,276,183,144,121,0
39.027345035,1152,1170,81,158,197,205,274,185,145,125,0
39.042130468,1153,1171,91,193,206,184,226,173,138,118,0
39.064491712,1153,1171,85,189,205,162,238,176,123,104,0
39.086900709,1154,1172,85,196,214,161,230,167,118,104,0
39.101852470,1155,1173,83,201,217,163,229,168,115,106,0
39.132431006,1155,1173,84,186,136,157,217,156,125,111,0
39.147168481,1156,1174,72,161,124,157,212,146,120,108,0
39.161479630,1156,1174,74,185,172,154,223,156,117,116,0
39.184466282,1157,1175,72,164,155,159,198,158,117,112,0
39.207388055,1158,1176,68,157,150,160,204,152,117,110,0
39.221392197,1158,1176,65,153,152,159,210,140,94,98,0
39.244543078,1159,1177,65,162,176,164,219,158,109,106,0
39.267007572,1160,1178,66,137,133,158,184,153,108,107,0
39.281368589,1160,1178,65,177,162,154,180,151,108,106,0
39.304428351,1161,1179,73,176,163,148,170,164,122,114,0
39.327190768,1161,1179,66,171,165,149,151,173,128,117,0
39.341259468,1162,1180,63,163,140,155,141,183,132,121,0
39.364742656,1162,1180,60,160,176,191,175,197,139,116,0
39.387426363,1163,1181,63,122,152,185,174,194,144,148,0
39.401365153,1163,1181,61,124,164,196,170,177,132,141,0
39.424478035,1164,1182,56,121,159,192,198,179,129,134,0
39.447093751,1165,1183,58,106,155,181,208,159,118,133,0
39.461561368,1165,1183,59,116,128,140,194,130,107,127,0
39.484730476,1166,1184,54,111,130,143,208,130,95,81,0
39.507613838,1167,1185,49,128,119,135,206,138,98,81,0
39.531511265,1167,1185,51,135,157,124,186,124,91,86,0
39.545010233,1168,1186,52,159,187,144,219,127,91,81,0
39.567342854,1168,1186,50,154,197,143,221,147,94,88,0
39.590102578,1169,1187,57,174,198,145,223,150,95,111,0
39.604482813,1170,1188,65,165,196,150,229,143,91,119,0
39.627591696,1170,1188,67,169,167,157,227,142,98,114,0
39.649582192,1171,1189,67,154,164,134,183,132,93,107,0
39.664752451,1171,1189,74,171,173,128,159,113,87,108,0
39.687078180,1172,1190,70,152,176,119,136,99,80,89,0
39.710197915,1173,1191,68,158,173,110,134,112,77,78,0
39.724691201,1173,1191,77,153,179,113,124,119,76,83,0
39.748169216,1174,1192,83,165,182,131,124,131,104,108,0
39.769636748,1174,1192,92,165,185,130,140,127,110,110,0
39.784620995,1175,1193,90,167,184,129,149,140,122,119,0
39.807248710,1176,1194,91,161,223,127,144,135,125,124,0
39.829506508,1176,1194,99,165,224,138,161,148,133,130,0
39.845057074,1177,1195,99,173,221,123,163,138,121,120,0
39.869017319,1177,1195,106,165,195,115,158,135,119,120,0
39.889435947,1178,1196,107,160,196,115,159,136,112,113,0
39.904506726,1179,1197,103,158,179,120,164,129,108,108,0
39.935088162,1179,1197,96,169,184,115,159,109,93,99,0
39.949479414,1180,1198,99,145,176,112,167,113,81,91,0
39.966421813,1180,1198,86,138,180,113,155,114,77,112,0
39.986923447,1181,1199,98,147,187,118,147,105,77,118,0
40.009696049,1182,1200,101,159,169,133,151,131,86,124,0
40.025943741,1182,1200,101,184,163,116,163,132,87,130,0
40.046905273,1183,1201,96,192,210,119,147,125,90,131,0
40.069443091,1183,1201,96,202,202,119,153,129,87,106,0
40.084426859,1184,1202,85,203,210,137,187,159,112,105,0
40.108342331,1185,1203,99,194,230,125,182,147,105,98,0
40.129776033,1185,1203,99,194,261,125,164,138,101,91,0
40.143879900,1186,1204,103,209,244,124,164,145,98,94,0
40.167083290,1186,1204,102,222,257,133,196,146,98,100,0
40.191956889,1187,1205,102,214,245,113,168,109,59,87,0
40.204713897,1187,1205,92,213,223,109,166,99,73,92,0
40.226941617,1188,1206,85,195,189,115,171,105,73,95,0
40.249443089,1189,1207,83,167,219,131,194,100,84,94,0
40.263776952,1189,1207,77,157,246,130,168,101,92,89,0
40.287495413,1190,1208,86,171,257,128,166,113,111,102,0
40.310265136,1191,1209,88,183,257,144,201,132,114,113,0
40.323787540,1191,1209,84,174,264,139,209,133,115,112,0
40.347306608,1192,1210,77,193,211,125,195,134,107,110,0
40.369968002,1192,1210,80,178,177,122,191,135,107,108,0
40.383685137,1193,1211,76,172,156,127,224,143,97,107,0
40.407246607,1194,1212,81,175,216,102,192,132,91,102,0
40.429531328,1194,1212,90,188,209,107,177,137,93,97,0
40.444502148,1195,1213,103,190,222,105,168,129,94,96,0
40.467121497,1195,1213,100,185,227,117,177,130,86,98,0
40.489988433,1196,1214,103,183,238,106,125,111,80,96,0
40.512667074,1197,1215,93,193,226,105,143,105,81,84,0
40.534483715,1197,1215,84,179,217,105,151,114,82,84,0
40.549481692,1198,1216,76,191,231,113,155,125,87,89,0
40.572062471,1198,1216,81,186,228,99,151,124,91,91,0
40.587054791,1199,1217,76,188,226,124,171,131,97,86,0
40.609768370,1200,1218,86,201,199,124,164,135,87,91,0
40.632399966,1200,1218,105,212,237,121,166,129,89,103,0
40.647183288,1201,1219,101,181,215,120,168,136,93,111,0
40.669600080,1201,1219,100,195,230,123,172,128,95,118,0
40.692151951,1202,1220,106,206,224,97,153,126,93,116,0
40.707091683,1202,1220,105,179,227,100,158,129,101,110,0
40.729675851,1203,1221,96,178,214,101,188,141,102,102,0
40.752006618,1204,1222,96,194,221,88,179,129,93,99,0
40.767246957,1204,1222,99,190,233,87,175,125,89,99,0
40.797171104,1205,1223,94,183,235,91,176,118,89,118,0
40.812164301,1206,1224,95,181,236,103,174,114,85,116,0
40.826963571,1206,1224,97,192,233,100,133,85,79,120,0
40.849608766,1207,1225,100,183,226,113,150,98,84,112,0
40.872149016,1207,1225,99,184,223,107,142,103,83,103,0
40.887091148,1208,1226,99,189,226,112,162,124,76,88,0
40.910157192,1209,1227,110,186,210,108,153,129,109,118,0
40.933253931,1209,1227,107,154,186,120,181,145,117,113,0
40.946362790,1210,1228,105,149,188,134,217,140,120,122,0
40.969645761,1210,1228,106,152,242,135,215,136,121,126,0
40.992137383,1211,1229,104,142,263,138,209,119,122,125,0
41.014903308,1212,1230,89,141,280,131,211,129,99,104,0
41.029720913,1212,1230,86,163,288,124,193,124,93,103,0
41.051966129,1213,1231,92,166,285,97,146,133,89,104,0
41.066398980,1213,1231,90,178,222,95,156,150,97,104,0
41.097039274,1214,1232,90,173,197,110,164,156,101,108,0
41.119485869,1215,1233,95,193,211,107,159,150,95,108,0
41.129373794,1215,1233,109,200,213,102,161,152,92,109,0
41.149605592,1216,1234,104,198,215,105,180,145,92,114,0
41.171911103,1216,1234,103,198,252,120,190,132,85,108,0
41.189528864,1217,1235,111,211,254,100,182,128,79,101,0
41.209716247,1217,1235,112,199,229,110,190,132,87,97,0
41.232073863,1218,1236,104,192,272,121,199,144,98,103,0
41.246495848,1219,1237,105,211,275,125,178,141,96,90,0
41.269963049,1219,1237,106,193,261,118,163,137,93,94,0
41.292756886,1220,1238,107,197,294,123,160,132,95,97,0
41.306362992,1220,1238,101,210,299,126,172,119,88,96,0
41.329446847,1221,1239,91,204,283,119,169,96,78,102,0
41.351915425,1222,1240,93,185,286,126,175,93,71,103,0
41.366478913,1222,1240,100,201,272,132,178,99,72,111,0
41.391265303,1223,1241,105,190,235,127,165,98,71,117,0
41.412098165,1224,1242,108,174,253,117,157,96,81,122,0
41.434486701,1224,1242,115,171,224,118,137,87,79,113,0
41.459556392,1225,1243,142,208,238,118,141,119,97,151,0
41.472020794,1225,1243,147,208,258,119,151,127,96,150,0
41.494730254,1226,1244,145,222,280,120,156,127,97,149,0
41.518736928,1227,1245,165,217,254,127,177,159,117,171,0
41.531527662,1227,1245,165,239,253,127,189,184,135,173,0
41.553798747,1228,1246,156,223,232,120,192,170,133,175,0
41.571239479,1228,1246,154,269,235,110,181,175,141,177,0
41.591171259,1229,1247,154,268,233,120,192,190,146,181,0
41.613863387,1230,1248,149,293,234,126,173,160,128,191,0
41.631175613,1230,1248,149,288,231,125,169,140,120,190,0
41.651509048,1231,1249,145,290,244,136,168,145,129,196,0
41.674585587,1231,1249,139,238,239,135,165,133,132,204,0
41.691494380,1232,1250,141,248,211,124,154,113,128,210,0
41.711956657,1232,1250,115,215,214,116,154,114,128,199,0
41.736711641,1233,1251,122,256,230,116,155,101,113,206,0
41.751532543,1234,1252,134,282,288,129,145,96,101,191,0
41.771273763,1234,1252,139,335,314,140,163,92,92,178,0
41.793802594,1235,1253,129,348,318,144,176,101,86,167,0
41.811325927,1235,1253,131,350,319,146,177,113,91,166,0
41.831434992,1236,1254,121,335,336,154,170,128,100,160,0
41.857060336,1237,1255,100,327,293,138,185,117,92,153,0
41.876393402,1237,1255,92,273,254,134,170,117,85,158,0
41.894142023,1238,1256,104,245,259,149,166,114,90,164,0
41.914354152,1238,1256,101,269,289,151,170,113,79,151,0
41.931705632,1239,1257,103,265,259,151,173,102,74,153,0
41.954035049,1240,1258,96,233,250,157,170,115,80,144,0
41.974455068,1240,1258,89,239,261,146,177,126,96,136,0
41.991561690,1241,1259,79,236,270,134,184,125,95,126,0
42.014117399,1241,1259,81,223,277,141,181,121,103,122,0
42.041581640,1242,1260,108,209,276,137,196,130,109,136,0
42.051222791,1242,1260,107,212,269,137,181,119,111,131,0
42.078041290,1243,1261,114,256,283,171,178,114,102,134,0
42.093829275,1244,1262,112,261,292,184,194,131,101,138,0
42.117047300,1245,1263,117,254,265,179,197,132,96,142,0
42.134232753,1245,1263,96,236,283,180,178,127,85,122,0
42.154234779,1246,1264,98,239,291,167,184,136,83,123,0
42.177995970,1246,1264,95,225,262,133,187,148,89,121,0
42.194127219,1247,1265,97,212,255,119,165,137,94,127,0
42.213833726,1247,1265,101,206,251,107,143,128,88,119,0
42.236377990,1248,1266,98,221,268,105,148,133,94,122,0
42.253991754,1249,1267,107,235,288,116,172,133,88,124,0
42.274040115,1249,1267,106,191,296,118,170,125,97,152,0
42.296364005,1250,1268,118,239,321,114,162,123,88,152,0
42.313644923,1250,1268,125,268,332,120,176,125,90,150,0
42.333900861,1251,1269,129,283,345,126,176,113,93,157,0
42.356937654,1252,1270,125,271,339,120,173,117,101,161,0
42.374012805,1252,1270,125,269,340,131,176,119,91,138,0
42.393823574,1253,1271,125,242,309,130,177,110,89,129,0
42.416387885,1253,1271,126,220,338,139,184,135,98,123,0
42.435452414,1254,1272,120,184,294,130,196,137,91,110,0
42.453885962,1255,1273,118,182,297,136,173,133,83,102,0
42.483944766,1255,1273,173,214,321,129,167,126,75,91,0
42.493599102,1256,1274,170,197,338,131,159,126,76,85,0
42.513991156,1256,1274,176,256,305,122,151,111,66,83,0
42.536469201,1257,1275,180,257,336,152,146,115,79,96,0
42.553648875,1257,1275,191,250,354,156,137,102,88,109,0
42.573717213,1258,1276,171,266,377,173,134,106,95,122,0
42.596320857,1259,1277,173,272,365,182,146,108,97,127,0
42.614203128,1259,1277,159,241,418,206,163,105,100,126,0
42.633968643,1260,1278,154,244,415,212,180,122,112,122,0
42.657221788,1261,1279,149,265,397,220,185,129,105,108,0
42.674790973,1261,1279,152,246,370,206,185,120,108,105,0
42.694117036,1262,1280,153,258,394,203,176,120,110,118,0
42.716865757,1262,1280,150,226,351,204,186,128,112,120,0
42.746401543,1263,1281,158,228,349,189,156,103,91,114,0
42.754240832,1264,1282,152,226,385,198,163,104,100,116,0
42.776847084,1264,1282,124,221,387,203,160,108,90,109,0
42.794890740,1265,1283,113,212,382,197,193,142,101,103,0
42.814260437,1265,1283,129,233,383,184,204,149,107,116,0
42.837026392,1266,1284,147,295,380,185,203,149,111,132,0
42.854919825,1267,1285,158,318,391,180,199,148,109,154,0
42.874521158,1267,1285,153,340,426,189,216,152,108,153,0
42.897085876,1268,1286,151,348,401,195,204,120,92,143,0
42.915268400,1268,1286,144,354,444,224,171,117,92,154,0
42.934268970,1269,1287,123,338,437,262,217,122,94,143,0
42.956861638,1270,1288,106,327,472,277,220,119,89,121,0
42.975059512,1270,1288,107,310,471,297,213,123,96,127,0
42.997768302,1271,1289,111,293,489,304,224,143,115,136,0
43.017409753,1271,1289,112,297,466,378,224,135,109,122,0
43.035327540,1272,1290,140,266,492,419,203,135,107,120,0
43.065107857,1273,1291,187,265,413,403,217,136,106,115,0
43.077701531,1273,1291,188,258,436,419,213,128,99,108,0
43.099289465,1274,1292,205,285,462,433,191,124,94,113,0
43.117647374,1274,1292,210,283,451,358,188,124,93,124,0
43.136874310,1275,1293,231,285,440,295,194,126,90,128,0
43.159379879,1276,1294,198,272,477,302,188,129,89,130,0
43.173732335,1276,1294,196,264,435,260,201,132,91,128,0
43.196398758,1277,1295,183,275,401,252,219,127,87,114,0
43.214182008,1277,1295,185,293,386,272,224,123,84,95,0
43.237025557,1278,1296,160,293,419,260,214,140,87,90,0
43.256444168,1279,1297,171,307,404,285,199,136,82,89,0
43.274033129,1279,1297,250,311,389,293,206,134,83,103,0
43.296365743,1280,1298,253,281,392,274,191,136,97,127,0
43.316450315,1280,1298,281,240,394,265,205,147,111,132,0
43.338912849,1281,1299,264,235,346,259,204,128,113,129,0
43.356436093,1282,1300,259,218,329,224,210,134,113,121,0
43.376365550,1282,1300,201,216,297,193,184,128,110,108,0
43.398793676,1283,1301,197,213,293,184,176,119,102,95,0
43.416330433,1283,1301,141,222,344,164,145,106,83,81,0
43.436402309,1284,1302,156,268,435,187,150,107,80,89,0
43.462891286,1285,1303,148,314,492,195,153,94,79,90,0
43.476856350,1285,1303,129,326,512,258,193,107,84,105,0
43.496799669,1286,1304,134,341,530,333,214,108,71,92,0
43.518832418,1286,1304,132,346,515,344,212,99,74,92,0
43.536571489,1287,1305,117,299,451,331,207,113,74,79,0
43.556438633,1288,1306,128,247,386,328,200,125,95,101,0
43.578992259,1288,1306,140,220,359,292,160,115,97,101,0
43.597067924,1289,1307,152,213,344,215,123,107,97,100,0
43.616335876,1289,1307,172,185,316,175,119,115,107,107,0
43.638985694,1290,1308,185,228,308,173,114,115,112,111,0
43.656708444,1290,1308,176,231,341,176,119,106,97,99,0
43.676786103,1291,1309,161,227,343,161,115,104,91,83,0
43.698912036,1292,1310,170,230,365,158,118,108,93,91,0
43.716328982,1292,1310,152,234,380,191,117,97,75,88,0
43.736216674,1293,1311,136,225,385,198,101,78,71,92,0
43.758839030,1294,1312,140,234,352,189,96,78,81,94,0
43.776926197,1294,1312,139,280,356,194,111,81,79,92,0
43.796451800,1295,1313,108,305,362,218,138,80,75,79,0
43.819003407,1295,1313,138,327,356,247,138,88,79,91,0
43.836133233,1296,1314,160,325,398,279,144,84,86,94,0
43.856434351,1296,1314,164,335,417,296,149,91,79,116,0
43.878913220,1297,1315,179,344,496,314,145,102,98,132,0
43.896695522,1298,1316,185,343,493,307,125,102,105,157,0
43.916370149,1298,1316,168,346,497,286,120,99,113,160,0
43.938886112,1299,1317,159,345,476,254,139,103,110,176,0
43.956179184,1299,1317,174,352,504,287,140,103,116,170,0
43.976437281,1300,1318,173,368,465,280,144,100,117,165,0
43.998868280,1301,1319,184,404,432,284,183,121,117,158,0
44.016345778,1301,1319,182,391,422,288,209,132,111,148,0
44.036412587,1302,1320,188,432,423,328,214,129,113,137,0
44.059368343,1303,1321,182,455,389,293,210,128,113,128,0
44.076879275,1303,1321,173,425,416,329,237,140,106,126,0
44.096434256,1304,1322,151,384,444,360,220,128,112,113,0
44.126363811,1305,1323,155,391,471,361,196,119,115,122,0
44.136355283,1305,1323,147,360,468,323,177,132,142,136,0
44.156585261,1305,1323,128,313,458,325,191,139,150,154,0
44.178995070,1306,1324,128,316,402,289,151,123,147,163,0
44.196315111,1307,1325,131,323,444,248,129,126,140,163,0
44.216588022,1307,1325,129,314,414,216,139,135,144,160,0
44.239443323,1308,1326,120,288,393,221,133,125,114,134,0
44.261397012,1309,1327,121,282,391,211,127,109,99,108,0
44.276575109,1309,1327,114,271,426,194,134,107,103,88,0
44.299073668,1310,1328,103,231,368,201,147,91,101,83,0
44.321746844,1310,1328,90,219,364,212,149,81,89,67,0
44.336359383,1311,1329,79,211,397,228,164,79,93,77,0
44.358831170,1311,1329,67,208,385,223,159,81,97,83,0
44.381340184,1312,1330,73,197,339,220,153,76,87,85,0
44.396531485,1313,1331,90,229,332,199,147,82,89,90,0
44.419432876,1313,1331,114,231,358,199,134,79,99,118,0
44.442151403,1314,1332,120,242,312,173,116,81,92,116,0
44.456624246,1314,1332,125,245,319,201,112,94,99,132,0
44.479407784,1315,1333,137,241,380,219,128,113,109,171,0
44.503988950,1316,1334,133,232,409,216,130,120,110,185,0
44.516915713,1316,1334,131,332,418,203,126,121,109,179,0
44.538684974,1317,1335,128,351,442,200,132,128,122,187,0
44.561344940,1317,1335,130,354,483,216,130,126,123,185,0
44.580447315,1318,1336,135,351,432,207,128,112,115,153,0
44.598924637,1319,1337,137,340,404,227,124,110,121,147,0
44.621257421,1319,1337,127,258,371,240,135,108,122,140,0
44.640531431,1320,1338,124,245,376,234,130,93,112,126,0
44.659240803,1320,1338,116,220,301,190,127,88,100,114,0
44.684717497,1321,1339,94,236,324,183,109,89,102,111,0
44.699837633,1322,1340,79,249,326,154,101,75,88,91,0
44.718884485,1322,1340,66,229,312,162,99,77,81,83,0
44.749576327,1323,1341,63,201,257,167,106,79,77,82,0
44.759804622,1323,1341,79,258,336,175,114,79,71,72,0
44.778948310,1324,1342,72,245,323,174,119,76,66,61,0
44.801511661,1325,1343,69,220,294,165,139,84,67,58,0
44.818983533,1325,1344,68,226,312,199,144,79,63,53,0
44.838902938,1326,1345,74,232,418,214,160,98,74,58,0
44.861450011,1326,1345,59,179,387,223,155,95,74,56,0
44.880059883,1327,1346,58,201,377,215,162,96,72,57,0
44.899162286,1328,1347,58,243,418,220,150,96,74,57,0
44.921249223,1328,1347,63,239,428,187,157,107,84,67,0
44.939690766,1329,1348,70,257,369,167,138,102,76,67,0
44.959339797,1329,1348,78,274,376,171,141,103,80,71,0
44.981280721,1330,1349,85,269,384,193,146,109,83,71,0
45.003756396,1331,1350,91,232,392,252,155,112,86,75,0
45.018754811,1331,1350,95,263,392,253,141,104,82,72,0
45.044440794,1332,1351,90,254,383,264,135,94,79,67,0
45.059367792,1332,1351,82,232,359,256,128,101,76,62,0
45.078751836,1333,1352,81,219,397,257,133,100,79,70,0
45.101312893,1334,1353,83,231,406,215,137,101,76,67,0
45.119220657,1334,1353,82,206,411,224,136,100,75,62,0
45.146397752,1335,1354,87,201,402,223,137,102,69,60,0
45.168792544,1336,1355,93,214,390,214,149,105,71,63,0
45.178849637,1336,1355,91,226,347,192,146,122,77,55,0
45.198976361,1336,1355,96,262,356,203,147,122,79,58,0
45.222820112,1337,1356,90,255,334,182,156,128,81,62,0
45.252984473,1338,1357,93,251,336,167,158,124,80,58,0
45.258653432,1338,1357,93,240,344,168,151,115,77,56,0
45.281245113,1339,1358,93,222,342,169,135,90,62,53,0
45.304215141,1340,1359,82,168,287,132,126,83,58,53,0
45.319472464,1340,1359,86,177,313,118,118,74,49,51,0
45.341325990,1341,1360,80,177,287,136,144,72,52,54,0
45.363810004,1341,1360,75,201,295,156,137,68,52,52,0
45.378958448,1342,1361,75,201,296,205,145,76,56,54,0
45.404149021,1343,1362,74,200,274,219,133,70,53,54,0
45.424433830,1343,1362,70,193,298,227,138,69,54,50,0
45.439699058,1344,1363,68,183,306,217,116,76,59,51,0
45.461372440,1344,1363,71,181,296,201,121,82,62,53,0
45.483800381,1345,1364,66,211,309,171,128,78,61,54,0
45.499058349,1345,1364,70,228,324,162,145,77,62,49,0
45.521408356,1346,1365,70,223,296,175,174,92,68,55,0
45.543828807,1347,1366,70,232,306,179,172,94,65,52,0
45.559068039,1347,1366,68,246,332,179,178,93,62,50,0
45.581404629,1348,1367,72,234,310,163,164,90,59,46,0
45.604095422,1349,1368,66,212,300,156,151,94,58,48,0
45.626323647,1349,1368,67,220,316,138,119,105,63,45,0
45.641818649,1350,1369,59,212,298,136,120,103,65,46,0
45.663874881,1350,1369,60,205,284,143,111,104,67,54,0
45.678923079,1351,1370,54,188,305,138,112,106,69,53,0
45.701408534,1351,1370,57,186,316,142,115,101,71,56,0
45.723907645,1352,1371,61,181,274,136,99,71,56,54,0
45.738932064,1353,1372,66,178,273,138,100,79,61,54,0
45.761994617,1353,1372,66,144,318,139,118,87,62,47,0
45.792316676,1354,1373,73,156,332,171,123,91,63,51,0
