timestamp,world_index,world_index_corrected,x,y,z
0.011849464,0,0,2.89333776,-0.27658095,-1.48153032
0.026824316,0,0,2.89301876,-0.27619772,-1.48215087
0.049254683,1,1,2.89250170,-0.27601939,-1.48218607
0.071814104,2,2,2.89193922,-0.27613503,-1.48191639
0.086730519,2,2,2.89135514,-0.27663420,-1.48176525
0.109355854,3,3,2.89084068,-0.27700895,-1.48137864
0.131803952,4,4,2.89029081,-0.27736104,-1.48142630
0.154208107,4,4,2.88987058,-0.27782551,-1.48174348
0.169287185,5,5,2.88970788,-0.27822113,-1.48140354
0.194510651,5,5,2.88977028,-0.27903346,-1.48156867
0.214204789,6,6,2.88983685,-0.28059065,-1.48207513
0.229402317,6,6,2.88988912,-0.28138051,-1.48276885
0.251645033,7,7,2.89048153,-0.28181775,-1.48402741
0.275073212,8,8,2.89107431,-0.28244630,-1.48473475
0.297136790,9,9,2.89167788,-0.28288238,-1.48538304
0.311690301,9,9,2.89236945,-0.28251681,-1.48579540
0.334151176,10,10,2.89272895,-0.28176925,-1.48612264
0.349318699,10,10,2.89276305,-0.28140702,-1.48679063
0.372043860,11,11,2.89264612,-0.28167950,-1.48612217
0.394593094,11,11,2.89245650,-0.28207754,-1.48437326
0.409465990,12,12,2.89237346,-0.28239509,-1.48335243
0.432658712,13,13,2.89236532,-0.28316304,-1.48307293
0.454261344,13,13,2.89212349,-0.28440605,-1.48252303
0.469281979,14,14,2.89212278,-0.28538920,-1.48116276
0.491710066,14,14,2.89210944,-0.28654157,-1.47977879
0.514412635,15,15,2.89234206,-0.28796405,-1.47839625
0.529396636,15,15,2.89257579,-0.28919456,-1.47756566
0.552041147,16,16,2.89266729,-0.29084335,-1.47657029
0.574427638,17,17,2.89261473,-0.29195053,-1.47553720
0.589641188,17,17,2.89313862,-0.29275242,-1.47471969
0.611848310,18,18,2.89418598,-0.29342073,-1.47329508
0.634449190,18,19,2.89538231,-0.29403360,-1.47155452
0.649445936,18,19,2.89641686,-0.29523451,-1.47023809
0.671759762,18,20,2.89746740,-0.29619377,-1.47062783
0.694334124,18,20,2.89840706,-0.29622091,-1.47279036
0.709367053,18,21,2.89946395,-0.29614286,-1.47498891
0.731742882,18,22,2.89998284,-0.29634557,-1.47504228
0.754289237,18,22,2.90031262,-0.29644731,-1.47270472
0.769412041,18,23,2.90080891,-0.29613022,-1.47062551
0.791867390,19,23,2.90122602,-0.29624713,-1.46997140
0.814349302,19,24,2.90111231,-0.29743018,-1.47032954
0.830176753,19,24,2.90064573,-0.29883244,-1.46963730
0.852138051,19,25,2.90024339,-0.29939072,-1.46844649
0.875342053,19,26,2.90076957,-0.29865981,-1.46809601
0.889505341,19,26,2.90155221,-0.29728842,-1.46742690
0.913929621,19,27,2.90212054,-0.29583309,-1.46761318
0.935395309,19,27,2.90201688,-0.29514349,-1.46777312
0.951556233,19,28,2.90151577,-0.29405226,-1.46686891
0.973018445,19,28,2.90134420,-0.29260259,-1.46570759
1.002381864,21,30,2.90136700,-0.29149846,-1.46532635
1.009735404,21,30,2.90122299,-0.29117343,-1.46481815
1.031604240,21,30,2.90131305,-0.29092919,-1.46415921
1.054455480,22,31,2.90191062,-0.29081953,-1.46391656
1.069265730,23,32,2.90287937,-0.29075274,-1.46451071
1.091768706,23,32,2.90401230,-0.29086653,-1.46510712
1.114419842,24,33,2.90510824,-0.29148736,-1.46563659
1.129592783,24,33,2.90635807,-0.29248049,-1.46622945
1.152091663,25,34,2.90789157,-0.29357376,-1.46694486
1.174654184,26,35,2.90954766,-0.29463076,-1.46794503
1.189578232,26,35,2.91150174,-0.29597662,-1.46922414
1.211807877,27,36,2.91339309,-0.29780142,-1.47087628
1.234721653,28,37,2.91542636,-0.29988670,-1.47410382
1.249432141,28,37,2.91694734,-0.30244607,-1.47869261
1.279502657,29,38,2.91832454,-0.30430471,-1.48194377
1.294377831,29,38,2.91958216,-0.30521767,-1.48422819
1.309639347,30,39,2.92034504,-0.30593315,-1.48593669
1.331829106,30,39,2.92020815,-0.30643100,-1.48743972
1.354442650,31,40,2.91940807,-0.30681532,-1.48867201
1.369698178,32,41,2.91778431,-0.30727953,-1.48853599
1.391855319,32,41,2.91606451,-0.30718613,-1.48712868
1.416427008,33,42,2.91473814,-0.30696757,-1.48536031
1.429262026,33,42,2.91376857,-0.30709824,-1.48430994
1.452112972,34,43,2.91293774,-0.30711574,-1.48400190
1.474752462,35,44,2.91214341,-0.30697964,-1.48450632
1.497351788,35,44,2.91224005,-0.30692320,-1.48461378
1.511760848,36,45,2.91279223,-0.30723177,-1.48589871
1.534231677,36,45,2.91340210,-0.30787504,-1.48670767
1.557165380,37,46,2.91385922,-0.30850529,-1.48758456
1.579298653,38,47,2.91458868,-0.30906552,-1.48851290
1.594462349,38,47,2.91547572,-0.30997343,-1.48942614
1.617094140,39,48,2.91597929,-0.31108466,-1.48972443
1.632163884,39,48,2.91641221,-0.31169293,-1.49042590
1.654259018,40,49,2.91662373,-0.31208155,-1.49076617
1.677228643,41,50,2.91697201,-0.31174853,-1.49007102
1.693314658,41,50,2.91747008,-0.31195624,-1.48942317
1.714920011,42,51,2.91733308,-0.31240626,-1.48873216
1.737077841,43,52,2.91725873,-0.31269827,-1.48894825
1.751919996,43,52,2.91715026,-0.31288899,-1.48996373
1.774985936,44,53,2.91690366,-0.31295000,-1.49062052
1.796732906,44,53,2.91690366,-0.31295000,-1.49062052
1.812026170,45,54,2.91658407,-0.31306035,-1.48923615
1.835527933,45,54,2.91635363,-0.31303879,-1.48832280
1.856926548,46,55,2.91635363,-0.31303879,-1.48832280
1.871805858,47,56,2.91617579,-0.31357397,-1.48910731
1.894308737,47,56,2.91620009,-0.31357111,-1.48920146
1.916982588,48,57,2.91621053,-0.31340194,-1.48922275
1.931805793,48,57,2.91644949,-0.31381091,-1.48974105
1.954320576,49,58,2.91668936,-0.31366893,-1.49006161
1.978905748,50,59,2.91742876,-0.31317771,-1.49015071
1.991732760,50,59,2.91804563,-0.31275226,-1.48942326
2.014793485,51,60,2.91821370,-0.31265449,-1.48831666
2.037599316,51,60,2.91812699,-0.31254191,-1.48822995
2.051780540,52,61,2.91778369,-0.31292647,-1.48847836
2.076958334,53,62,2.91756622,-0.31303639,-1.48878256
2.097336148,53,62,2.91756622,-0.31303639,-1.48878256
2.111807867,54,63,2.91748254,-0.31294682,-1.48877952
2.135901891,54,63,2.91729611,-0.31313513,-1.48820062
2.164910966,55,64,2.91719446,-0.31340695,-1.48823883
2.172474291,55,64,2.91720210,-0.31375952,-1.48898845
2.194492647,56,65,2.91741948,-0.31392676,-1.48979714
2.225993260,57,66,2.91749753,-0.31423767,-1.48933225
2.248458473,58,67,2.91771798,-0.31418606,-1.48796704
2.254630579,58,67,2.91821064,-0.31406535,-1.48665345
2.277309894,59,68,2.91899202,-0.31434164,-1.48666127
2.291730496,59,68,2.91968112,-0.31527104,-1.48692725
2.314174552,60,69,2.92029971,-0.31624688,-1.48779467
2.339125693,60,69,2.92093244,-0.31704610,-1.48929839
2.354014238,61,70,2.92188165,-0.31747018,-1.48984555
2.382143929,62,71,2.92227375,-0.31847859,-1.48935365
2.396959414,62,71,2.92163504,-0.31896631,-1.48892478
2.411737580,63,72,2.92043771,-0.31805759,-1.48821997
2.434918378,63,72,2.91893653,-0.31622338,-1.48862815
2.456954878,64,73,2.91719074,-0.31447949,-1.48916520
2.480484163,65,74,2.91563593,-0.31318547,-1.48889024
2.494223677,65,74,2.91437892,-0.31239811,-1.48842967
2.524976858,66,75,2.91317938,-0.31225852,-1.48746149
2.531758503,66,75,2.91219564,-0.31197953,-1.48672008
2.554221413,67,76,2.91151461,-0.31140372,-1.48720723
2.576830267,68,77,2.91159821,-0.31063908,-1.48907337
2.593387818,68,77,2.91163205,-0.30988844,-1.48952315
2.614981560,69,78,2.91170842,-0.30904003,-1.48972542
2.637535529,69,78,2.91189076,-0.30769965,-1.49035791
2.654000909,70,79,2.91221776,-0.30687179,-1.49156543
2.675854702,71,80,2.91235485,-0.30644621,-1.49234015
2.696938041,71,80,2.91179708,-0.30584537,-1.49188633
2.713526674,72,81,2.91141533,-0.30492261,-1.49079539
2.734455261,72,81,2.91101999,-0.30414116,-1.49021330
2.758863970,73,82,2.91055308,-0.30343244,-1.49031479
2.773702002,73,82,2.91016721,-0.30280886,-1.49103211
2.801952224,74,83,2.90987243,-0.30208285,-1.49168998
2.816981831,75,84,2.90998701,-0.30142221,-1.49214152
2.839961204,75,84,2.91027064,-0.30096326,-1.49268087
2.856138115,76,85,2.91048642,-0.30060470,-1.49337344
2.876860600,77,86,2.91055847,-0.30030738,-1.49377119
2.915871402,78,87,2.91055625,-0.30028462,-1.49368754
2.918930851,78,87,2.91086084,-0.30004278,-1.49385257
2.939250684,78,87,2.91163500,-0.29918146,-1.49460355
2.961209890,79,88,2.91235311,-0.29880716,-1.49511220
2.974916567,79,88,2.91235536,-0.29882978,-1.49519592
2.997633926,80,89,2.91200688,-0.29883892,-1.49461469
3.021337603,81,90,2.91197478,-0.29845918,-1.49430322
3.036530913,81,90,2.91197478,-0.29845918,-1.49430322
3.056820347,82,91,2.91222741,-0.29850748,-1.49477700
3.080796721,83,92,2.91231110,-0.29859684,-1.49477923
3.094302820,83,92,2.91231110,-0.29859684,-1.49477923
3.116934981,84,93,2.91228743,-0.29859898,-1.49468572
3.139405494,84,93,2.91217968,-0.29860056,-1.49563709
3.154925313,85,94,2.91215601,-0.29860270,-1.49554362
3.177015560,85,94,2.91169182,-0.29814270,-1.49464882
3.199329278,86,95,2.91147428,-0.29770313,-1.49475730
3.214926457,87,96,2.91144848,-0.29768258,-1.49458015
3.244466572,87,96,2.91144848,-0.29768258,-1.49458015
3.259135440,88,97,2.91135499,-0.29776256,-1.49455649
3.276957588,88,97,2.91135499,-0.29776256,-1.49455649
3.297566925,89,98,2.91144848,-0.29768258,-1.49458015
3.319555713,90,99,2.91144848,-0.29768258,-1.49458015
3.334970238,90,99,2.91144848,-0.29768258,-1.49458015
3.359540080,91,100,2.91150009,-0.29772368,-1.49493446
3.379507225,92,101,2.91130548,-0.29807566,-1.49494931
3.394392561,92,101,2.91131174,-0.29843494,-1.49508346
3.417056097,93,102,2.91128586,-0.29841437,-1.49490627
3.439722223,93,102,2.91128586,-0.29841437,-1.49490627
3.454578298,94,103,2.91128586,-0.29841437,-1.49490627
3.477136397,94,103,2.91117848,-0.29832708,-1.49481060
3.499601913,95,104,2.91117632,-0.29830443,-1.49472692
3.521931404,96,105,2.91117632,-0.29830443,-1.49472692
3.536948351,96,105,2.91117632,-0.29830443,-1.49472692
3.559429157,97,106,2.91117632,-0.29830443,-1.49472692
3.576071002,97,106,2.91140670,-0.29813526,-1.49557430
3.597225734,98,107,2.91127152,-0.29833641,-1.49588128
3.619599974,99,108,2.91105303,-0.29835887,-1.49513910
3.636755127,99,108,2.91105087,-0.29833621,-1.49505541
3.656988878,100,109,2.91132182,-0.29859718,-1.49576851
3.679220295,100,109,2.91136613,-0.29883029,-1.49618515
3.696875734,101,110,2.91136392,-0.29880763,-1.49610140
3.717220878,102,111,2.91124674,-0.29888978,-1.49598422
3.742174683,102,111,2.91124674,-0.29888978,-1.49598422
3.756548930,103,112,2.91139954,-0.29865882,-1.49630009
3.776834535,103,112,2.91135794,-0.29877996,-1.49663079
3.799390397,104,113,2.91133423,-0.29878208,-1.49653735
3.816194142,105,114,2.91133423,-0.29878208,-1.49653735
3.837026017,105,114,2.91111545,-0.29889401,-1.49684212
3.860234808,106,115,2.91108951,-0.29887345,-1.49666491
3.876513026,106,115,2.91108951,-0.29887345,-1.49666491
3.897363083,107,116,2.91053906,-0.29942662,-1.49616046
3.919362102,108,117,2.91053686,-0.29940390,-1.49607672
3.943575198,108,117,2.91044948,-0.29930987,-1.49668774
3.957130296,109,118,2.91054073,-0.29920710,-1.49662774
3.979363328,109,118,2.91054073,-0.29920710,-1.49662774
3.996065259,110,119,2.91025456,-0.29941983,-1.49708586
4.016813843,111,120,2.91023077,-0.29942193,-1.49699242
4.039985337,111,120,2.91003556,-0.29944213,-1.49634349
4.057327684,112,121,2.91003338,-0.29941939,-1.49625974
4.077556112,112,121,2.90983407,-0.29919280,-1.49660765
4.099479925,113,122,2.90983407,-0.29919280,-1.49660765
4.116010758,113,122,2.90983407,-0.29919280,-1.49660765
4.137480560,114,123,2.90983407,-0.29919280,-1.49660765
4.159636761,115,124,2.90983407,-0.29919280,-1.49660765
4.191287413,116,125,2.90980811,-0.29917213,-1.49643044
4.196805030,116,125,2.90958186,-0.29947635,-1.49679720
4.219669067,117,126,2.90958186,-0.29947635,-1.49679720
4.243384402,117,126,2.90958186,-0.29947635,-1.49679720
4.257962421,118,127,2.90955587,-0.29945566,-1.49661998
4.279375038,118,127,2.90947298,-0.29969853,-1.49728121
4.301854390,119,128,2.90909392,-0.30023365,-1.49733168
4.320089538,120,129,2.90909174,-0.30021084,-1.49724789
4.339447766,120,129,2.90909174,-0.30021084,-1.49724789
4.362438281,121,130,2.90903618,-0.30016512,-1.49750675
4.376769002,121,130,2.90903400,-0.30014230,-1.49742295
4.399421108,122,131,2.90865070,-0.30087375,-1.49692188
4.422153731,123,132,2.90814941,-0.30168710,-1.49630288
4.437608323,123,132,2.90798386,-0.30206396,-1.49588064
4.474830451,124,133,2.90800248,-0.30227702,-1.49611987
4.481847602,124,133,2.90785543,-0.30286690,-1.49593673
4.498746133,125,134,2.90740434,-0.30314697,-1.49539210
4.520301496,126,135,2.90714682,-0.30362645,-1.49502905
4.542075947,126,135,2.90703208,-0.30348961,-1.49537933
4.558935674,127,136,2.90660244,-0.30376388,-1.49554157
4.579500649,127,136,2.90603628,-0.30390686,-1.49534680
4.602432766,128,137,2.90560461,-0.30384788,-1.49484570
4.619934005,129,138,2.90560461,-0.30384788,-1.49484570
4.639564614,129,138,2.90542268,-0.30381223,-1.49534922
4.661756702,130,139,2.90542268,-0.30381223,-1.49534922
4.680346510,130,139,2.90551416,-0.30370924,-1.49528973
4.699613715,131,140,2.90550697,-0.30277482,-1.49487807
4.722528296,132,141,2.90607174,-0.30119196,-1.49463313
4.746005099,132,141,2.90808372,-0.29878416,-1.49647545
4.759782193,133,142,2.90995098,-0.29879813,-1.50010034
4.782406893,133,142,2.90998669,-0.30061287,-1.50146832
4.798969820,134,143,2.90893291,-0.30162644,-1.49959769
4.819450732,134,143,2.90911137,-0.30130745,-1.49834676
4.841784599,135,144,2.90978870,-0.30160527,-1.49938365
4.858662096,136,145,2.90945836,-0.30237863,-1.49923740
4.880228469,136,145,2.90845892,-0.30323603,-1.49827094
4.903716796,137,146,2.90751109,-0.30411490,-1.49696045
4.918717824,138,147,2.90671161,-0.30442590,-1.49591638
4.940163008,138,147,2.90604613,-0.30484439,-1.49514520
4.961753574,139,148,2.90524373,-0.30482057,-1.49343728
4.979862612,139,148,2.90527134,-0.30362596,-1.49148067
4.999365429,140,149,2.90645542,-0.30101341,-1.49076103
5.023686780,141,150,2.90802418,-0.29813691,-1.49302990
5.039219114,141,150,2.90963403,-0.29516278,-1.49443251
5.059315346,142,151,2.91040361,-0.29496546,-1.49650749
5.081828757,142,151,2.90982883,-0.29549769,-1.49582721
5.098809564,143,152,2.90804517,-0.29680475,-1.49442636
5.119885901,143,152,2.90586933,-0.29790514,-1.49210932
5.142588110,144,153,2.90402116,-0.29878122,-1.49013195
5.158619157,145,154,2.90200190,-0.30004972,-1.48842533
5.179528627,145,154,2.90008602,-0.30104477,-1.48606610
5.201926265,146,155,2.89808615,-0.30221005,-1.48278634
5.218726886,146,155,2.89596427,-0.30378626,-1.47943195
5.239428184,147,156,2.89282436,-0.30595609,-1.47609415
5.263199531,148,157,2.88885309,-0.30723542,-1.47220385
5.280504019,148,157,2.88424208,-0.30841595,-1.46707071
5.299368157,149,158,2.88013838,-0.31012178,-1.46264246
5.321874994,149,158,2.87772366,-0.31197394,-1.45898864
5.339071048,150,159,2.87634517,-0.31397912,-1.45636135
5.366788625,151,160,2.87526012,-0.31594094,-1.45395982
5.382084004,151,160,2.87381553,-0.31789786,-1.45158187
5.399050676,152,161,2.87289685,-0.31936049,-1.45095482
5.421587919,152,161,2.87271558,-0.32054115,-1.45048680
5.443954617,153,162,2.87312210,-0.32101449,-1.44995924
5.458873878,154,163,2.87329790,-0.32147564,-1.44921235
5.482238008,154,163,2.87323812,-0.32220995,-1.44812768
5.501837795,155,164,2.87292942,-0.32346093,-1.44692296
5.524634483,155,165,2.87228928,-0.32550575,-1.44633487
5.541355027,156,165,2.87131269,-0.32828587,-1.44558596
5.562841652,156,166,2.86977729,-0.32887087,-1.44514606
5.584538003,157,167,2.86867181,-0.32790301,-1.44341608
5.611289712,158,168,2.86801939,-0.32686039,-1.44168929
5.622011783,158,168,2.86774410,-0.32557773,-1.44147908
5.646144060,159,169,2.86880101,-0.32396804,-1.44375299
5.661314528,160,170,2.86916274,-0.32384512,-1.44683597
5.681890301,160,170,2.86897432,-0.32394877,-1.44837749
5.704397527,161,171,2.86865518,-0.32455863,-1.44779403
5.721120980,161,171,2.86849542,-0.32577970,-1.44696740
5.742070920,162,172,2.86873559,-0.32645688,-1.44664407
5.772216119,163,173,2.86935556,-0.32717880,-1.44594086
5.781816216,163,173,2.87004708,-0.32921213,-1.44487556
5.802005530,164,174,2.87093935,-0.33162083,-1.44406127
5.824095920,164,174,2.87195647,-0.33470809,-1.44431930
5.844156640,165,175,2.87230641,-0.33661857,-1.44525008
5.862042149,166,176,2.87259942,-0.33836419,-1.44425283
5.884307445,166,176,2.87396580,-0.33890590,-1.44176736
5.901098562,167,177,2.87587447,-0.34082119,-1.44006361
5.923848796,167,177,2.87740757,-0.34326377,-1.43848608
5.944379933,168,178,2.87975299,-0.34562154,-1.43742852
5.961473102,169,179,2.88276313,-0.34800048,-1.43675328
5.981813935,169,179,2.88514874,-0.35010730,-1.43725259
6.004467670,170,180,2.88604927,-0.35161129,-1.43614811
6.021396594,170,180,2.88655522,-0.35274943,-1.43422316
6.049548037,170,181,2.88658303,-0.35388927,-1.43256451
6.065156088,171,182,2.88682630,-0.35540700,-1.43177785
6.081103278,171,182,2.88646961,-0.35721614,-1.43075041
6.103080290,171,183,2.88577745,-0.35831889,-1.42904736
6.132342391,171,184,2.88525998,-0.35774418,-1.42885195
6.141200169,171,184,2.88444067,-0.35694718,-1.42925357
6.163494317,172,184,2.88336372,-0.35606924,-1.42970366
6.184345206,172,185,2.88229212,-0.35600070,-1.42960106
6.202007868,172,185,2.88136820,-0.35630985,-1.42955868
6.221823501,173,186,2.87958587,-0.35641509,-1.42903309
6.244477079,174,187,2.87772975,-0.35570787,-1.42825155
6.260942340,175,188,2.87656969,-0.35460772,-1.42766068
6.282022766,175,188,2.87579773,-0.35405544,-1.42847956
6.304512432,176,189,2.87475548,-0.35439733,-1.42876430
6.321812090,176,189,2.87376926,-0.35405962,-1.42853902
6.342043730,177,190,2.87308831,-0.35366012,-1.42847070
6.364889245,178,191,2.87223146,-0.35337790,-1.42941464
6.388895897,178,191,2.87109707,-0.35304920,-1.42933886
6.403823340,179,192,2.86983013,-0.35302380,-1.42822042
6.440663569,180,193,2.86839915,-0.35320050,-1.42730438
6.443459535,180,193,2.86745932,-0.35258344,-1.42624496
6.464210947,181,194,2.86624997,-0.35239646,-1.42586704
6.484655180,181,194,2.86492080,-0.35221691,-1.42573590
6.501332561,182,195,2.86359754,-0.35229928,-1.42538303
6.523449127,182,195,2.86284093,-0.35201458,-1.42493337
6.551730182,183,196,2.86279549,-0.35158743,-1.42498692
6.561638641,183,196,2.86302026,-0.35095010,-1.42628155
6.583446620,184,197,2.86287602,-0.35070960,-1.42726677
6.606279362,185,198,2.86262230,-0.35037853,-1.42815284
6.621269845,185,198,2.86262230,-0.35037853,-1.42815284
6.644218157,186,199,2.86299896,-0.34996645,-1.42899568
6.664553014,187,200,2.86320658,-0.35011907,-1.43016422
6.681313957,187,200,2.86341438,-0.35027146,-1.43133282
6.703653334,188,201,2.86377233,-0.35044069,-1.43243374
6.725030921,188,201,2.86397940,-0.35045519,-1.43256133
6.741711806,189,202,2.86366683,-0.35066920,-1.43291217
6.764390350,190,203,2.86343738,-0.35058729,-1.43305937
6.785064526,190,203,2.86400293,-0.34967632,-1.43330039
6.801563278,191,204,2.86503085,-0.34924774,-1.43382369
6.830956623,192,205,2.86677982,-0.34897441,-1.43595991
6.845291309,192,205,2.86970091,-0.34875093,-1.43963477
6.867745469,193,206,2.87315819,-0.34922864,-1.44285336
6.883304840,193,206,2.87569137,-0.34982783,-1.44482979
6.904776776,194,207,2.87653890,-0.35050933,-1.44586373
6.943951994,195,208,2.87565020,-0.35123627,-1.44621160
6.948624326,195,208,2.87332145,-0.35139861,-1.44469449
6.964239954,196,209,2.87140717,-0.35111604,-1.44234518
6.986839306,196,209,2.87127911,-0.35067354,-1.44097016
7.003867312,197,210,2.87125970,-0.35027129,-1.44119979
7.024425732,197,210,2.87021255,-0.35038399,-1.44178706
7.046720572,198,211,2.86871243,-0.35046216,-1.44140656
7.063761567,198,211,2.86777266,-0.35080842,-1.44029689
7.084406859,199,212,2.86688974,-0.35233954,-1.44008171
7.109049438,200,213,2.86594895,-0.35356881,-1.44034344
7.123952286,200,213,2.86371263,-0.35480487,-1.43946774
7.144399489,201,214,2.86048464,-0.35567745,-1.43828305
7.166829335,202,215,2.85718058,-0.35492854,-1.43635791
7.184791024,202,215,2.85441598,-0.35481627,-1.43434599
7.204529233,203,216,2.85236441,-0.35523987,-1.43353799
7.226992518,203,216,2.85128243,-0.35569003,-1.43184043
7.244348799,204,217,2.85001611,-0.35577232,-1.43168032
7.271796950,205,218,2.84868357,-0.35660681,-1.43164761
7.286972341,205,218,2.84695526,-0.35762559,-1.43053457
7.303919368,206,219,2.84516584,-0.35799388,-1.42924637
7.333806781,207,220,2.84362189,-0.35827389,-1.42783903
7.346722788,207,220,2.84229512,-0.35835419,-1.42748065
7.363539165,207,220,2.84158517,-0.35843612,-1.42839963
7.385909649,208,221,2.84160037,-0.35803679,-1.42873441
7.408004836,209,222,2.84200021,-0.35746564,-1.42961378
7.423647910,209,222,2.84250357,-0.35717093,-1.43117761
7.446625203,210,223,2.84275702,-0.35735202,-1.43306039
7.467141919,211,224,2.84296330,-0.35767269,-1.43473562
7.483557651,211,224,2.84387978,-0.35731485,-1.43567622
7.507959644,212,225,2.84524148,-0.35743069,-1.43733413
7.527231333,212,225,2.84736895,-0.35713900,-1.43991802
7.543736311,213,226,2.84982866,-0.35662885,-1.44330290
7.566799295,213,226,2.85265304,-0.35648960,-1.44740473
7.588297934,214,227,2.85604339,-0.35647402,-1.45035069
7.609401607,215,228,2.85907707,-0.35780668,-1.45293457
7.626428855,215,228,2.86087402,-0.36014095,-1.45407333
7.655043335,216,229,2.86176330,-0.36133558,-1.45415025
7.663311803,216,229,2.86101497,-0.36137698,-1.45258247
7.687347450,217,230,2.85980943,-0.36164600,-1.45151278
7.707551941,218,231,2.85939592,-0.36161950,-1.45019996
7.724981691,218,231,2.85971099,-0.36163684,-1.44954779
7.746241449,219,232,2.86096249,-0.36176831,-1.45153872
7.767021638,219,232,2.86230475,-0.36294468,-1.45348041
7.783624986,220,233,2.86254377,-0.36334276,-1.45496975
7.807146637,221,234,2.86308561,-0.36310743,-1.45581928
7.826784009,221,234,2.86305409,-0.36308212,-1.45563996
7.843393257,222,235,2.86243748,-0.36351760,-1.45634129
7.865860118,222,235,2.86120675,-0.36435963,-1.45491406
7.887292830,223,236,2.86056579,-0.36518468,-1.45466746
7.903816902,224,237,2.86058190,-0.36471397,-1.45642499
7.925887761,224,237,2.86043210,-0.36487886,-1.45708133
7.947156339,225,238,2.85958122,-0.36669025,-1.45619896
7.963915132,225,238,2.85821142,-0.36768206,-1.45595998
7.986684730,226,239,2.85734488,-0.36814752,-1.45492101
8.007800427,227,240,2.85650753,-0.36861018,-1.45397880
8.023897284,227,240,2.85562754,-0.36839913,-1.45392872
8.046968125,228,241,2.85487052,-0.36735992,-1.45367687
8.074471098,229,242,2.85427387,-0.36593519,-1.45369101
8.085006650,229,242,2.85441647,-0.36536341,-1.45549546
8.106537639,230,243,2.85458419,-0.36527455,-1.45731268
8.126684512,230,243,2.85415999,-0.36553197,-1.45798921
8.157026280,231,244,2.85336419,-0.36577427,-1.45806606
8.166326327,231,244,2.85259450,-0.36547581,-1.45858351
8.186922564,232,245,2.85215478,-0.36506089,-1.46024971
8.209502400,233,246,2.85129670,-0.36495602,-1.46169939
8.225856519,233,246,2.85054348,-0.36485310,-1.46236847
8.247278778,234,247,2.85054348,-0.36485310,-1.46236847
8.271730399,235,248,2.85085875,-0.36574997,-1.46352850
8.285863902,235,248,2.85171173,-0.36714751,-1.46525184
8.309084314,236,249,2.85175833,-0.36977488,-1.46698340
8.329527266,236,249,2.85277806,-0.37632670,-1.46767214
8.346789712,237,250,2.85291979,-0.38090874,-1.46796719
8.369608359,237,250,2.85276493,-0.38321395,-1.46855556
8.389568310,238,251,2.85215252,-0.38202106,-1.46719807
8.406191299,239,252,2.85266567,-0.38058363,-1.46565817
8.428529951,239,252,2.85383007,-0.37993593,-1.46590203
8.449944991,240,253,2.85403516,-0.37751419,-1.46773832
8.466342711,240,253,2.85305952,-0.37596295,-1.47160319
8.488415846,241,254,2.85233610,-0.37741722,-1.47523121
8.511554102,242,255,2.85183359,-0.38077209,-1.47443443
8.526288963,242,255,2.85159469,-0.38334506,-1.46981163
8.549117948,243,256,2.85031486,-0.38296087,-1.46907980
8.569444701,243,256,2.84976612,-0.38033596,-1.47018011
8.586403671,244,257,2.84901653,-0.37666578,-1.47211565
8.609918539,245,258,2.84863054,-0.37109049,-1.47380172
8.632174799,245,258,2.84952925,-0.36378768,-1.47422724
8.646228397,246,259,2.85146478,-0.36055653,-1.47429750
8.668781730,246,259,2.85496956,-0.35842917,-1.47510818
8.689249089,247,260,2.86026424,-0.35417500,-1.47815486
8.706846622,247,260,2.86417458,-0.34881648,-1.48338765
8.728816866,248,261,2.86685151,-0.34133360,-1.48611444
8.749463650,249,262,2.86820942,-0.33390457,-1.48601681
8.774814245,250,263,2.87018181,-0.33081197,-1.48503705
8.795993854,250,263,2.87220039,-0.33082644,-1.48697401
8.810045864,251,264,2.87344651,-0.32955681,-1.49125185
8.826052728,251,264,2.87464547,-0.32631475,-1.49553293
8.848779373,252,265,2.87366211,-0.32539921,-1.49673012
8.869521576,252,265,2.87211629,-0.32345226,-1.49418542
8.886497929,253,266,2.87171710,-0.32114662,-1.49356388
8.910602155,254,267,2.87204857,-0.31988487,-1.49670900
8.929544290,254,267,2.87182736,-0.31844320,-1.49916906
8.946267922,255,268,2.87180623,-0.31558444,-1.49904169
8.969216451,255,268,2.87326499,-0.31061357,-1.49927281
8.989546900,256,269,2.87569314,-0.30711244,-1.50332342
9.006022819,256,269,2.87750586,-0.30557343,-1.50699569
9.028476929,257,270,2.88002014,-0.30371630,-1.50949556
9.051626117,258,271,2.88241248,-0.30225138,-1.51244630
9.072391572,258,271,2.88427394,-0.29965624,-1.51686763
9.089110810,259,272,2.88498945,-0.29847594,-1.52003881
9.109496224,260,273,2.88558586,-0.29794392,-1.52081739
9.126345321,260,273,2.88718158,-0.29664576,-1.52228803
9.148993967,261,274,2.88956969,-0.29558601,-1.52498869
9.178976643,261,274,2.89112100,-0.29508364,-1.52871853
9.185927756,261,274,2.89139282,-0.29440951,-1.52972589
9.208890924,262,275,2.89155882,-0.29326415,-1.53112919
9.232062723,263,276,2.89169393,-0.29115932,-1.53265062
9.246565787,263,276,2.89302301,-0.28811548,-1.53499474
9.271282774,264,277,2.89396179,-0.28703415,-1.53693988
9.291340896,265,278,2.89525602,-0.28577029,-1.53887047
9.307681308,265,278,2.89701914,-0.28440510,-1.54219693
9.328721910,266,279,2.89911890,-0.28212868,-1.54594443
9.351636929,267,280,2.90101552,-0.27945765,-1.54944079
9.366142922,267,280,2.90108483,-0.27826431,-1.55038715
9.389865856,268,281,2.90056176,-0.27699753,-1.55011694
9.412424871,269,282,2.90014845,-0.27527643,-1.55184988
9.426120017,269,282,2.90052044,-0.27308229,-1.55410079
9.449120312,270,283,2.90057264,-0.27167237,-1.55550886
9.471636318,270,283,2.90030603,-0.27035410,-1.55466877
9.486847270,271,284,2.89992833,-0.26904361,-1.55547901
9.508472629,271,284,2.89934715,-0.26717480,-1.55668186
9.532794587,272,285,2.89947414,-0.26493907,-1.55784973
9.551833963,273,286,2.89872182,-0.26367546,-1.55667706
9.569837786,273,286,2.89763342,-0.26203849,-1.55612003
9.596847115,274,287,2.89657492,-0.26041942,-1.55644353
9.611895122,274,287,2.89640855,-0.25862378,-1.55822320
9.628543776,275,288,2.89619717,-0.25751090,-1.55912311
9.651363837,276,289,2.89594159,-0.25670261,-1.55761100
9.674399225,276,289,2.89563905,-0.25639973,-1.55725871
9.688798480,277,290,2.89559517,-0.25563069,-1.55813784
9.712091332,277,290,2.89597307,-0.25440601,-1.55816374
9.733969166,278,291,2.89600422,-0.25373084,-1.55693669
9.748836209,279,292,2.89558733,-0.25349196,-1.55568544
9.771216809,279,292,2.89440419,-0.25336001,-1.55528676
9.793973806,280,293,2.89334567,-0.25265633,-1.55515212
9.808438283,280,293,2.89291321,-0.25239140,-1.55512999
9.838981815,281,294,2.89251271,-0.25234286,-1.55333113
9.852067475,282,295,2.89238038,-0.25221402,-1.55227841
9.868815644,282,295,2.89182017,-0.25256330,-1.55146146
9.892113077,283,296,2.89057421,-0.25238423,-1.55132486
9.912209567,283,296,2.88896961,-0.25162170,-1.55086568
9.930485701,284,297,2.88788011,-0.25197691,-1.54936576
9.951416807,285,298,2.88572046,-0.25211034,-1.54758068
9.972228920,285,298,2.88283936,-0.25222188,-1.54631917
9.996530798,286,299,2.87936047,-0.25243851,-1.54452727
10.011057284,286,299,2.87635180,-0.25278007,-1.54102228
10.033279453,287,300,2.87312561,-0.25361356,-1.53733128
10.048422845,288,301,2.86978916,-0.25432407,-1.53346274
10.071138151,288,301,2.86651758,-0.25512408,-1.53090306
10.091863087,289,302,2.86344467,-0.25574594,-1.52777587
10.109777825,289,302,2.86118734,-0.25519569,-1.52448233
10.132297058,290,303,2.86077078,-0.25638448,-1.52232279
10.161577718,291,304,2.86107505,-0.25722684,-1.52083581
10.169041325,291,304,2.86039149,-0.25798813,-1.51931599
10.191115941,292,305,2.85841279,-0.25937287,-1.51612512
10.213720038,292,305,2.85672710,-0.25923949,-1.51336832
10.229428667,293,306,2.85519986,-0.25909637,-1.51116116
10.251090174,294,307,2.85330567,-0.25892006,-1.50943745
10.273524267,294,307,2.85097452,-0.25827069,-1.50755008
10.289833445,295,308,2.84942685,-0.25713916,-1.50663459
10.311375662,295,308,2.84823717,-0.25587799,-1.50587415
10.334017251,296,309,2.84712604,-0.25523823,-1.50520768
10.348436876,297,310,2.84583155,-0.25440854,-1.50507438
10.371527815,297,310,2.84479902,-0.25477784,-1.50470498
10.394305275,298,311,2.84372362,-0.25548240,-1.50418919
10.408921459,298,311,2.84164206,-0.25604716,-1.50338301
10.431386834,299,312,2.83928063,-0.25609729,-1.50217927
10.453588710,300,313,2.83711013,-0.25597882,-1.50164392
10.468565141,300,313,2.83472805,-0.25713985,-1.50078774
10.492754256,301,314,2.83234289,-0.25825551,-1.49914391
10.513641694,301,314,2.82959643,-0.25848626,-1.49855739
10.528954597,302,315,2.82729669,-0.25975093,-1.49839161
10.551188689,302,315,2.82606937,-0.26139581,-1.49777958
10.574873011,303,316,2.82480402,-0.26435049,-1.49756023
10.589125342,303,316,2.82223407,-0.26774296,-1.49575858
10.611551574,304,317,2.81909055,-0.27109270,-1.49431320
10.633453445,305,318,2.81665843,-0.27386955,-1.49261539
10.658513068,306,319,2.81620886,-0.27884468,-1.49108863
10.670912678,306,319,2.81885811,-0.28415870,-1.49031884
10.693921536,307,320,2.82198418,-0.28624695,-1.49317583
10.714287676,307,320,2.82352110,-0.28678691,-1.49711512
10.739273218,308,321,2.82389985,-0.29119360,-1.49626437
10.753888011,309,322,2.82552002,-0.29895830,-1.49602809
10.776448659,309,322,2.82801300,-0.30426722,-1.50155955
10.791032977,310,323,2.83120844,-0.30666306,-1.51078291
10.813725437,310,323,2.83530268,-0.31154746,-1.51596080
10.841837178,311,324,2.84149089,-0.31925406,-1.51408045
10.851274349,312,325,2.84674034,-0.32573050,-1.51413352
10.873623018,312,325,2.84767631,-0.32723130,-1.51706789
10.894266694,313,326,2.84733949,-0.32801425,-1.51636101
10.911253821,313,326,2.84914333,-0.33119424,-1.51132042
10.933450636,314,327,2.85094428,-0.33339052,-1.50917401
10.954863157,315,328,2.85082885,-0.33450702,-1.51031225
10.970835850,315,328,2.85021376,-0.33553077,-1.51066954
10.993252676,316,329,2.85065449,-0.33700610,-1.50857643
11.014681650,316,329,2.85271482,-0.33902122,-1.50889757
11.032682757,317,330,2.85441715,-0.34078436,-1.51061299
11.055577624,318,331,2.85484556,-0.34248258,-1.51202757
11.075155602,318,331,2.85506169,-0.34344797,-1.51201044
11.091457143,319,332,2.85570802,-0.34528504,-1.51176291
11.114460481,319,332,2.85466195,-0.34644794,-1.51122523
11.137220958,320,333,2.85333304,-0.34619299,-1.51067122
11.151621294,320,333,2.85235166,-0.34568348,-1.51092660
11.173791034,321,334,2.85171208,-0.34611270,-1.51145553
11.201904820,322,335,2.85146586,-0.34583432,-1.51198463
11.212653157,322,335,2.85089458,-0.34630283,-1.51340507
11.235120641,323,336,2.85149851,-0.34551492,-1.51602235
11.256921165,324,337,2.85196972,-0.34452069,-1.51643293
11.271286580,324,337,2.85196798,-0.34449373,-1.51634832
11.293630152,325,338,2.85135049,-0.34511814,-1.51702957
11.319349295,325,338,2.85147164,-0.34581568,-1.51747710
11.331002282,326,339,2.85108473,-0.34836289,-1.51799781
11.355638723,327,340,2.85008206,-0.34897233,-1.51852238
11.376637178,327,340,2.84872184,-0.34835523,-1.51668864
11.391537897,328,341,2.84787452,-0.34795392,-1.51385192
11.414582040,328,341,2.84712382,-0.34703218,-1.51182130
11.435999253,329,342,2.84557081,-0.34554008,-1.51203837
11.458464853,330,343,2.84489114,-0.34349018,-1.51311870
11.498613253,331,344,2.84545334,-0.34370091,-1.51389437
11.502829512,331,344,2.84602361,-0.34506823,-1.51298870
11.510800931,331,344,2.84578786,-0.34581833,-1.51141414
11.533414952,332,345,2.84506273,-0.34638684,-1.51048812
11.556596700,333,346,2.84454325,-0.34587572,-1.50941121
11.577091256,333,346,2.84446660,-0.34602948,-1.50857628
11.595259074,334,347,2.84384708,-0.34616447,-1.50711573
11.616085201,334,347,2.84349681,-0.34582971,-1.50604203
11.636708929,335,348,2.84349681,-0.34582971,-1.50604203
11.654488089,336,349,2.84340231,-0.34590875,-1.50601294
11.676161879,336,349,2.84337322,-0.34590992,-1.50591844
11.696918761,337,350,2.84354704,-0.34574515,-1.50482403
11.713552653,337,350,2.84359867,-0.34659044,-1.50337331
11.736977039,338,351,2.84332572,-0.34693906,-1.50202903
11.758582019,339,352,2.84269784,-0.34738691,-1.50158067
11.774559602,339,352,2.84145659,-0.34856844,-1.50055015
11.795900027,340,353,2.83940591,-0.35008976,-1.49656994
11.824675018,341,354,2.83719819,-0.35284349,-1.49182500
11.833364468,341,354,2.83452126,-0.35292494,-1.48839196
11.856501443,341,354,2.83154537,-0.35366462,-1.48408436
11.877401083,342,355,2.82870335,-0.35385952,-1.47846572
11.894110434,343,356,2.82749452,-0.35378826,-1.47523607
11.916455973,343,356,2.82693096,-0.35437736,-1.47441016
11.936892649,344,357,2.82777667,-0.35392529,-1.47491047
11.953836745,344,357,2.82934164,-0.35503782,-1.47563928
11.976782337,345,358,2.83137636,-0.35784151,-1.47626716
11.997161055,346,359,2.83285867,-0.35988890,-1.47603189
12.013837870,346,359,2.83434605,-0.36169781,-1.47663908
12.036699544,347,360,2.83495057,-0.36215261,-1.47721206
12.058595595,348,361,2.83482245,-0.36160141,-1.47772140
12.074224202,348,361,2.83515969,-0.36295327,-1.47721064
12.103405642,349,362,2.83707307,-0.36430651,-1.47655822
12.120136504,349,362,2.83919182,-0.36505284,-1.47773051
12.133910999,350,363,2.84094063,-0.36491931,-1.48083682
12.156135540,350,363,2.84144652,-0.36600630,-1.48155948
12.178636983,351,364,2.84134521,-0.36677112,-1.47946550
12.193616418,352,365,2.84027868,-0.36648282,-1.47753051
12.218319698,352,365,2.83935127,-0.36670749,-1.47554115
12.240576669,353,366,2.83799225,-0.36647241,-1.47398408
12.261522327,353,366,2.83647448,-0.36544007,-1.47208533
12.276726869,354,367,2.83527980,-0.36551196,-1.47095671
12.299267901,355,368,2.83421544,-0.36655340,-1.46960265
12.314770631,355,368,2.83349377,-0.36641929,-1.46762095
12.335931581,356,369,2.83330459,-0.36609373,-1.46603936
12.358510560,357,370,2.83347315,-0.36576671,-1.46443923
12.379198303,357,370,2.83323391,-0.36482741,-1.46232790
12.397380309,358,371,2.83166206,-0.36394445,-1.46074886
12.419181237,358,372,2.82863164,-0.35961873,-1.45973591
12.433866576,359,373,2.82658341,-0.35271263,-1.45749383
12.457783853,359,373,2.82787822,-0.34464081,-1.45314444
12.479884090,360,374,2.83292931,-0.34192823,-1.45912901
12.499520721,361,375,2.83421207,-0.34259127,-1.45916394
12.516205364,361,375,2.83796542,-0.33949610,-1.45405287
12.544898573,362,376,2.84443256,-0.33860897,-1.45456331
12.561774436,363,377,2.85230301,-0.33976128,-1.46243392
12.577369333,363,377,2.85839139,-0.34154566,-1.47103868
12.598592746,364,378,2.85984033,-0.34435196,-1.46990430
12.619286751,364,378,2.85936378,-0.34347189,-1.46596680
12.638053215,365,379,2.85815046,-0.34354106,-1.46414535
12.658781376,365,379,2.85624117,-0.34509473,-1.46356259
12.679495841,366,380,2.85388197,-0.34618132,-1.46225805
12.696965285,366,380,2.85079391,-0.34586536,-1.46068254
12.718322806,367,381,2.84754944,-0.34513559,-1.46055877
12.739363990,368,382,2.84481494,-0.34413912,-1.46163634
12.756186206,368,382,2.84213964,-0.34322657,-1.46315452
12.786066946,369,383,2.83852213,-0.34257769,-1.46490807
12.799371691,369,383,2.83162097,-0.34129159,-1.46289780
12.816316129,370,384,2.82427796,-0.34084680,-1.46182350
12.838843757,371,385,2.81716790,-0.34168955,-1.45923806
12.860110314,371,385,2.81106013,-0.34232411,-1.45473240
12.876555197,372,386,2.80637481,-0.34595130,-1.44878760
12.898444447,372,386,2.80310541,-0.35069243,-1.44322846
12.919462001,373,387,2.80283097,-0.35432545,-1.44260604
12.937341331,374,388,2.80558201,-0.35615597,-1.44626691
12.959347747,374,388,2.80841444,-0.35708516,-1.44939819
12.979197933,375,389,2.80990214,-0.35940403,-1.44953199
12.997317378,376,390,2.81011078,-0.36171702,-1.45120783
13.019227039,376,390,2.81025558,-0.36357349,-1.45330708
13.049243193,377,391,2.81097627,-0.36317588,-1.45458340
13.057634080,377,391,2.81259058,-0.36237037,-1.45557374
13.078400603,378,392,2.81494318,-0.36289568,-1.45610929
13.101945251,379,393,2.81650742,-0.36366951,-1.45574435
13.117288312,379,393,2.81748889,-0.36527573,-1.45787749
13.138965488,379,393,2.81750354,-0.36464090,-1.46003381
13.161425247,380,394,2.81729261,-0.36420520,-1.45962546
13.176734716,381,395,2.81700061,-0.36587901,-1.45838928
13.200086185,382,396,2.81724553,-0.36779572,-1.45685793
13.221363285,382,396,2.81734124,-0.36827544,-1.45759281
13.236066217,383,397,2.81673328,-0.36902649,-1.45618661
13.258511527,383,397,2.81539627,-0.36994878,-1.45380788
13.281603443,384,398,2.81544932,-0.37122307,-1.45332705
13.296349805,384,398,2.81537154,-0.37080422,-1.45231620
13.318763132,385,399,2.81514753,-0.36997743,-1.45117409
13.341754659,386,400,2.81436983,-0.37112951,-1.45054835
13.356773864,386,400,2.81326659,-0.37208606,-1.44944991
13.378651924,387,401,2.81218081,-0.37290846,-1.44748687
13.401541371,388,402,2.81151517,-0.37421646,-1.44516431
13.415701482,388,402,2.81102272,-0.37648438,-1.44073883
13.440026874,389,403,2.80980223,-0.37865398,-1.43609757
13.462461930,389,403,2.80752520,-0.37821590,-1.43259438
13.481998777,390,404,2.80582919,-0.37576230,-1.43046939
13.504460387,391,405,2.80518932,-0.37508977,-1.42868250
13.521172923,391,405,2.80544690,-0.37551795,-1.42669253
13.543694655,392,406,2.80565387,-0.37694410,-1.42665353
13.561068449,392,406,2.80563469,-0.37714064,-1.42670074
13.581006513,393,407,2.80611531,-0.37769203,-1.42669833
13.602088645,394,408,2.80681179,-0.37910905,-1.42693617
13.619265767,394,408,2.80747502,-0.38052717,-1.42609991
13.642711817,395,409,2.80776907,-0.38033715,-1.42432536
13.662209697,395,409,2.80822692,-0.38016443,-1.42302176
13.678876170,396,410,2.80792729,-0.38058315,-1.42350891
13.701114381,397,411,2.80676414,-0.38087010,-1.42277233
13.730034868,397,411,2.80577990,-0.38103889,-1.42066686
13.738529620,398,412,2.80495957,-0.38105750,-1.41755133
13.768755121,399,413,2.80461905,-0.38080997,-1.41538272
13.781814324,399,413,2.80401920,-0.38134413,-1.41444924
13.798971497,400,414,2.80326198,-0.38155673,-1.41309163
13.821605688,400,414,2.80275727,-0.38142504,-1.41185305
13.841955375,401,415,2.80262015,-0.38166407,-1.41124918
13.858692362,401,415,2.80247259,-0.38235779,-1.41099525
13.881025706,402,416,2.80261097,-0.38270881,-1.41096053
13.902144175,403,417,2.80292212,-0.38330566,-1.41064540
13.919290439,403,417,2.80334546,-0.38399557,-1.41042962
13.941827475,404,418,2.80392560,-0.38441630,-1.41127688
13.963447212,404,418,2.80432633,-0.38422749,-1.41273034
13.978896212,405,419,2.80431400,-0.38403048,-1.41258454
14.001465796,406,420,2.80468721,-0.38406801,-1.41221134
14.024218624,406,420,2.80492319,-0.38454209,-1.41279424
14.046570541,407,421,2.80451759,-0.38379176,-1.41338793
14.060977494,407,421,2.80380983,-0.38259717,-1.41327962
14.083345653,408,422,2.80343158,-0.38272599,-1.41318152
14.098430591,408,422,2.80295516,-0.38282274,-1.41270510
14.121202499,409,423,2.80285555,-0.38289643,-1.41267220
14.143762116,410,424,2.80286681,-0.38233588,-1.41197640
14.158788660,410,424,2.80313931,-0.38185684,-1.41220862
14.181339000,411,425,2.80302987,-0.38102214,-1.41332647
14.203415966,411,425,2.80264829,-0.37990999,-1.41434645
14.219929959,412,426,2.80202994,-0.37838460,-1.41494423
14.241587389,413,427,2.80140740,-0.37778370,-1.41591187
14.263987092,413,427,2.80114655,-0.37699339,-1.41725556
14.278948438,414,428,2.80117083,-0.37569431,-1.41928747
14.301197018,414,428,2.80096764,-0.37522228,-1.41978069
14.323990699,415,429,2.80118841,-0.37386346,-1.42016592
14.338555443,416,430,2.80177535,-0.37261862,-1.42238891
14.361883114,416,430,2.80265068,-0.37157286,-1.42400430
14.384022520,417,431,2.80296864,-0.37066975,-1.42557103
14.405234524,418,432,2.80297103,-0.36998943,-1.42747839
14.421358526,418,432,2.80301617,-0.36681051,-1.42780660
14.443860506,419,433,2.80290423,-0.36615686,-1.42647765
14.464178055,419,433,2.80358622,-0.36525802,-1.42855891
14.485526905,420,434,2.80358220,-0.36415330,-1.43116438
14.504043314,421,435,2.80311367,-0.36295267,-1.43271715
14.524121486,421,435,2.80185156,-0.36247065,-1.43282782
14.541223065,422,436,2.79929725,-0.36170216,-1.43256240
14.563904588,422,436,2.79547291,-0.35971818,-1.43111988
14.584875224,423,437,2.79208675,-0.35703756,-1.42972193
14.600935492,423,437,2.78922950,-0.35574763,-1.42754894
14.623429409,424,438,2.78630350,-0.35380091,-1.42566599
14.646807048,425,439,2.78431974,-0.35046082,-1.42602154
14.661117326,425,439,2.78190812,-0.34807064,-1.42664776
14.683859699,426,440,2.77770631,-0.34719661,-1.42415694
14.704288579,426,440,2.77391983,-0.34499479,-1.42120792
14.721098542,427,441,2.77131294,-0.34216870,-1.42047833
14.743492376,428,442,2.76950234,-0.33942404,-1.42211756
14.764363541,428,442,2.76634646,-0.33813300,-1.42215107
14.782150921,429,443,2.76285878,-0.33686375,-1.41891361
14.803665424,429,443,2.76115026,-0.33585609,-1.41773608
14.824373479,430,444,2.75936697,-0.33436692,-1.41833816
14.842208821,431,445,2.75707391,-0.33206731,-1.41759170
14.879457820,432,446,2.75424739,-0.32916641,-1.41509084
14.884329145,432,446,2.75232552,-0.32704431,-1.41340844
14.901172049,432,446,2.75050890,-0.32630954,-1.41278914
14.931268498,433,447,2.74923866,-0.32505446,-1.41398131
14.946060845,434,448,2.74847124,-0.32331423,-1.41403616
14.961080103,434,448,2.74774597,-0.32265184,-1.41306534
14.990930617,435,449,2.74642421,-0.32228770,-1.41290836
15.006035076,435,449,2.74534948,-0.32183266,-1.41263413
15.021183438,436,450,2.74481657,-0.32137231,-1.41326658
15.043625163,437,451,2.74445988,-0.32039115,-1.41376506
15.073992870,438,452,2.74416357,-0.31963927,-1.41315811
15.082294855,438,452,2.74348393,-0.31841023,-1.41303531
15.103686389,438,452,2.74211866,-0.31697066,-1.41292788
15.126066723,439,453,2.74060497,-0.31621223,-1.41157080
15.141677532,440,454,2.73904800,-0.31536733,-1.41130258
15.164366251,440,454,2.73716502,-0.31430215,-1.41049368
15.185963397,441,455,2.73528558,-0.31366322,-1.40807019
15.209998531,442,456,2.73337386,-0.31237186,-1.40748582
15.223688136,442,456,2.73194673,-0.31146873,-1.40690046
15.245971182,443,457,2.73055513,-0.31121619,-1.40546167
15.268599007,443,457,2.72905701,-0.31042117,-1.40502159
15.284409476,444,458,2.72773317,-0.30877279,-1.40391231
15.308122874,444,458,2.72650495,-0.30771921,-1.40339623
15.320904959,445,459,2.72560942,-0.30663654,-1.40267857
15.344050610,446,460,2.72496063,-0.30642160,-1.40181390
15.366503331,446,460,2.72410351,-0.30683853,-1.40183890
15.386823484,447,461,2.72359225,-0.30600422,-1.40140268
15.403642099,447,461,2.72306503,-0.30575248,-1.40074404
15.433877865,448,462,2.72297101,-0.30581605,-1.39973017
15.447004975,449,463,2.72263542,-0.30616396,-1.39798701
15.463750171,449,463,2.72233842,-0.30640311,-1.39698638
15.486516124,450,464,2.72168786,-0.30640862,-1.39678634
15.507059308,450,464,2.72168786,-0.30640862,-1.39678634
15.523712359,451,465,2.72145891,-0.30655679,-1.39617270
15.547245182,452,466,2.72085847,-0.30662693,-1.39533774
15.566951567,452,466,2.72085847,-0.30662693,-1.39533774
15.583762519,453,467,2.72109297,-0.30667207,-1.39510325
15.606707672,453,467,2.72107186,-0.30683779,-1.39506367
15.627019401,454,468,2.72056835,-0.30747535,-1.39473917
15.644155820,455,469,2.72100768,-0.30797492,-1.39398813
15.674213202,455,469,2.72210541,-0.30908058,-1.39384107
15.687082710,456,470,2.72323869,-0.30967143,-1.39416937
15.711403546,456,470,2.72381916,-0.30998022,-1.39464750
15.726792973,457,471,2.72501201,-0.31081828,-1.39538349
15.747586353,458,472,2.72627850,-0.31176742,-1.39664319
15.763365560,458,472,2.72808367,-0.31292896,-1.39750611
15.785990915,459,473,2.73027051,-0.31435041,-1.39820021
15.807793298,459,473,2.73282715,-0.31523101,-1.40015187
15.823671497,460,474,2.73493726,-0.31615792,-1.40255566
15.846161437,461,475,2.73735241,-0.31748051,-1.40501291
15.859746063,461,475,2.74010449,-0.31875392,-1.40674216
15.882890443,462,476,2.74321423,-0.32027745,-1.40919493
15.897022906,462,476,2.74549859,-0.32037820,-1.41252574
15.919795956,463,477,2.74661528,-0.32074470,-1.41460506
15.943044420,463,477,2.74658761,-0.32150837,-1.41586836
15.957161940,464,478,2.74590740,-0.32251737,-1.41714129
15.979386156,465,479,2.74608739,-0.32458350,-1.41994577
16.005138826,465,479,2.74735777,-0.32871257,-1.42108247
16.016851040,466,480,2.74746421,-0.33083280,-1.42092242
16.039803616,466,480,2.74694952,-0.33122593,-1.42172904
16.066045152,467,481,2.74607979,-0.33103059,-1.42178912
16.077100269,467,481,2.74564114,-0.33112173,-1.42043903
16.100173882,468,482,2.74529773,-0.33068893,-1.41922083
16.122342439,469,483,2.74458295,-0.32865516,-1.41854028
16.137614573,469,483,2.74403707,-0.32580047,-1.41922973
16.159261961,470,484,2.74483552,-0.32612100,-1.41984221
16.182646078,471,485,2.74562167,-0.32868288,-1.41889942
16.197008724,471,485,2.74600820,-0.33029237,-1.41648854
16.227449420,472,486,2.74614648,-0.33087475,-1.41665614
16.243924104,472,486,2.74741495,-0.33055668,-1.41802615
16.257001894,473,487,2.74832301,-0.33063939,-1.41772490
16.280316421,474,488,2.74910009,-0.33131625,-1.41692339
16.302846375,474,488,2.75004241,-0.33223132,-1.41824086
16.324818204,475,489,2.75074609,-0.33246240,-1.42028398
16.339435305,475,489,2.75135893,-0.33237302,-1.42112903
16.362855576,476,490,2.75259440,-0.33326839,-1.42169746
16.384991452,477,491,2.75471516,-0.33510930,-1.42304432
16.399840558,477,491,2.75706468,-0.33666734,-1.42609512
16.422806990,478,492,2.76014877,-0.33865869,-1.42946366
16.444989337,478,492,2.76263283,-0.33911340,-1.43250577
16.459962012,479,493,2.76395258,-0.33886295,-1.43377821
16.482912986,480,494,2.76455589,-0.33895581,-1.43271245
16.505458562,480,494,2.76537970,-0.33971144,-1.43128581
16.520283471,481,495,2.76642432,-0.34093161,-1.43283581
16.541957788,481,495,2.76811196,-0.34147850,-1.43455344
16.565169397,482,496,2.76931987,-0.34186894,-1.43452152
16.579820111,482,496,2.77012322,-0.34204442,-1.43374075
16.602216484,483,497,2.77111072,-0.34299486,-1.43284364
16.625532147,484,498,2.77238125,-0.34386621,-1.43246189
16.639456999,484,498,2.77436655,-0.34433905,-1.43327495
16.662019690,485,499,2.77718564,-0.34658337,-1.43478623
16.685034201,486,500,2.78006914,-0.34711135,-1.43620282
16.700114647,486,500,2.78277569,-0.34724847,-1.43694954
16.722267621,487,501,2.78416160,-0.34806678,-1.43571683
16.744970041,487,501,2.78494674,-0.34841409,-1.43490520
16.760196294,488,502,2.78506446,-0.34814284,-1.43489118
16.782157766,488,502,2.78502013,-0.34771804,-1.43496197
16.805833043,489,503,2.78436450,-0.34715169,-1.43494848
16.819432473,490,504,2.78387261,-0.34696243,-1.43453895
16.841788448,490,504,2.78338009,-0.34576695,-1.43503499
16.865441599,491,505,2.78271375,-0.34458998,-1.43611625
16.879329584,491,505,2.78161091,-0.34373009,-1.43598710
16.902021245,492,506,2.77971493,-0.34392478,-1.43595382
16.925135132,493,507,2.77757464,-0.34346605,-1.43475440
16.939552044,493,507,2.77591795,-0.34177665,-1.43308522
16.961934606,494,508,2.77524517,-0.34156384,-1.43460739
16.985292566,495,509,2.77477111,-0.34283387,-1.43373370
16.999250210,495,509,2.77464338,-0.34212235,-1.43171095
17.022342702,496,510,2.77425762,-0.33885316,-1.43210879
17.045877270,496,510,2.77316103,-0.33360531,-1.43249862
17.060053672,497,511,2.77067993,-0.32952185,-1.43072612
17.082556610,497,511,2.76862828,-0.32776466,-1.42776874
17.104982981,498,512,2.76900134,-0.32540647,-1.42599166
17.119447079,499,513,2.77319443,-0.32270732,-1.42798164
17.142276269,499,513,2.78096078,-0.32176254,-1.43468591
17.165565703,500,514,2.78836341,-0.32455075,-1.43944594
17.179535785,500,514,2.79326565,-0.32721927,-1.44202577
17.201770490,501,515,2.79716608,-0.32810142,-1.44494858
17.224965166,502,516,2.80068095,-0.33028965,-1.44836621
17.239644663,502,516,2.80385015,-0.33289058,-1.44845974
17.262306607,503,517,2.80629210,-0.33495581,-1.44736626
17.285064193,503,517,2.80693808,-0.33565694,-1.44727102
17.299673286,504,518,2.80638710,-0.33583539,-1.44731558
17.322528837,505,519,2.80509538,-0.33555955,-1.44589079
17.345871229,505,519,2.80402567,-0.33516057,-1.44470378
17.359303208,506,520,2.80311033,-0.33412617,-1.44401647
17.382267335,506,520,2.80206937,-0.33316491,-1.44320371
17.405052630,507,521,2.80200779,-0.33287801,-1.44315798
17.419291666,508,522,2.80250170,-0.33244226,-1.44421324
17.441936560,508,522,2.80299043,-0.33237080,-1.44538067
17.465042667,509,523,2.80271485,-0.33245976,-1.44540318
17.479796308,509,523,2.80273106,-0.33229257,-1.44543536
17.502163413,510,524,2.80307392,-0.33246196,-1.44591128
17.525088538,511,525,2.80368176,-0.33259924,-1.44545987
17.539310035,511,525,2.80389787,-0.33306913,-1.44443610
17.561775010,512,526,2.80389998,-0.33304079,-1.44435579
17.584969223,512,526,2.80437081,-0.33316403,-1.44557174
17.599344394,513,527,2.80514083,-0.33289265,-1.44584391
17.621832722,514,528,2.80649713,-0.33303502,-1.44650584
17.644996398,514,528,2.80719052,-0.33336931,-1.44852460
17.667478787,515,529,2.80725852,-0.33244197,-1.45047649
17.682087215,515,529,2.80766192,-0.33168423,-1.45183842
17.705029541,516,530,2.80769279,-0.33171287,-1.45254815
17.728059924,517,531,2.80750635,-0.33186309,-1.45355417
17.741703252,517,531,2.80750635,-0.33186309,-1.45355417
17.765077289,518,532,2.80729657,-0.33184793,-1.45289724
17.787564799,518,532,2.80698741,-0.33227353,-1.45232406
17.801971563,519,533,2.80703845,-0.33272623,-1.45287239
17.824549281,520,534,2.80719522,-0.33330095,-1.45306314
17.848031304,520,534,2.80720733,-0.33313478,-1.45256190
17.870428300,521,535,2.80681343,-0.33347032,-1.45145724
17.884754902,521,535,2.80665587,-0.33387936,-1.45126746
17.907495910,522,536,2.80700565,-0.33466520,-1.45216460
17.922152017,522,536,2.80764475,-0.33516648,-1.45245753
17.945387104,523,537,2.80868224,-0.33555944,-1.45301620
17.967901049,524,538,2.80931320,-0.33586149,-1.45369748
17.981786691,524,538,2.80968086,-0.33647856,-1.45462828
18.004338578,525,539,2.80968086,-0.33647856,-1.45462828
18.027646383,526,540,2.80947953,-0.33643262,-1.45495587
18.041830784,526,540,2.80933504,-0.33644623,-1.45563794
18.064643221,527,541,2.80885061,-0.33688500,-1.45564993
18.087547944,527,541,2.80841396,-0.33738624,-1.45494953
18.101907575,528,542,2.80818816,-0.33751050,-1.45417878
18.124403765,529,543,2.80807719,-0.33741809,-1.45408400
18.147971676,529,543,2.80782519,-0.33728293,-1.45450952
18.161831476,530,544,2.80713457,-0.33708473,-1.45504153
18.184314862,530,544,2.80655112,-0.33664418,-1.45510223
18.207883049,531,545,2.80632969,-0.33617496,-1.45559138
18.222797407,531,545,2.80633177,-0.33653858,-1.45623829
18.252670925,532,546,2.80600461,-0.33715999,-1.45571296
18.267565602,533,547,2.80561999,-0.33772112,-1.45483282
18.281960147,533,547,2.80561999,-0.33772112,-1.45483282
18.304506093,534,548,2.80533798,-0.33758494,-1.45516212
18.329052818,535,549,2.80522858,-0.33746397,-1.45498659
18.342251202,535,549,2.80513899,-0.33776670,-1.45464924
18.372455173,536,550,2.80459014,-0.33791864,-1.45461262
18.387644398,536,550,2.80397999,-0.33840329,-1.45441551
18.402096074,537,551,2.80355368,-0.33814470,-1.45393963
18.424528270,537,551,2.80311665,-0.33805301,-1.45396519
18.447386546,538,552,2.80274668,-0.33819081,-1.45387602
18.461941753,539,553,2.80272673,-0.33875123,-1.45403763
18.484948728,539,553,2.80269637,-0.33874955,-1.45394123
18.507922766,540,554,2.80223922,-0.33857037,-1.45416129
18.521897528,540,554,2.80127989,-0.33868964,-1.45440772
18.544782709,541,555,2.80056923,-0.33865963,-1.45437426
18.568002117,542,556,2.80005945,-0.33867412,-1.45401311
18.582603646,542,556,2.79997866,-0.33858320,-1.45401502
18.604671456,543,557,2.80005808,-0.33844914,-1.45485439
18.627540780,544,558,2.79998205,-0.33835898,-1.45538973
18.642427301,544,558,2.79975066,-0.33831279,-1.45562112
18.666853237,545,559,2.79975066,-0.33831279,-1.45562112
18.687954092,545,559,2.79975258,-0.33828405,-1.45554027
18.701785477,546,560,2.79939781,-0.33850832,-1.45472273
18.724776161,546,560,2.79901621,-0.33867292,-1.45364707
18.747625098,547,561,2.79911262,-0.33859676,-1.45367757
18.761825725,548,562,2.79906523,-0.33853741,-1.45439016
18.784742526,548,562,2.79899740,-0.33864423,-1.45453682
18.807796584,549,563,2.79876922,-0.33879376,-1.45384592
18.822337502,549,563,2.79876922,-0.33879376,-1.45384592
18.844570393,550,564,2.79884998,-0.33888468,-1.45384395
18.866902229,551,565,2.79885195,-0.33885589,-1.45376319
18.882384997,551,565,2.79891009,-0.33914170,-1.45327601
18.904467253,552,566,2.79860090,-0.33920009,-1.45258694
18.926792308,552,566,2.79782534,-0.33891139,-1.45258798
18.942761867,553,567,2.79731487,-0.33830595,-1.45234254
18.964447881,554,568,2.79690486,-0.33787839,-1.45190035
18.986760723,554,569,2.79616604,-0.33781659,-1.45169025
19.010379680,555,570,2.79504822,-0.33794751,-1.45101839
19.025560470,555,570,2.79290424,-0.33827435,-1.45065799
19.046961819,556,571,2.78956576,-0.33857964,-1.44946557
19.071396944,557,572,2.78619529,-0.33791977,-1.44773299
19.084249084,557,572,2.78336841,-0.33765227,-1.44771610
19.115191402,558,573,2.78193401,-0.33704663,-1.44694642
19.130087698,559,574,2.78018885,-0.33719926,-1.44615840
19.144542203,559,574,2.77743458,-0.33741630,-1.44632809
19.166909118,560,575,2.77485383,-0.33683934,-1.44704052
19.190093161,560,575,2.77360801,-0.33640832,-1.44583098
19.204716161,561,576,2.77297763,-0.33689462,-1.44410624
19.226915478,561,576,2.77210215,-0.33628873,-1.44237528
19.250314091,562,577,2.77139058,-0.33506291,-1.44168842
19.264568282,563,578,2.77082207,-0.33422372,-1.44157276
19.286829028,563,578,2.77081162,-0.33304568,-1.43993262
19.317470021,564,579,2.77198829,-0.33044396,-1.43763103
19.324474407,564,579,2.77392232,-0.32988221,-1.43310563
19.346865809,565,580,2.77510962,-0.32927261,-1.43192500
19.370560077,566,581,2.77599479,-0.32774927,-1.43415709
19.384488385,566,581,2.77545534,-0.32532087,-1.43525056
19.407653417,567,582,2.77371008,-0.32329848,-1.43480739
19.430172627,567,582,2.77144432,-0.32088053,-1.43373111
19.444629404,568,583,2.76802897,-0.32011204,-1.43515767
19.467542714,569,584,2.76386640,-0.31885782,-1.43655814
19.490223762,569,584,2.75881430,-0.31759054,-1.43549429
19.504456485,570,585,2.75413501,-0.31617958,-1.43550856
19.526803412,570,585,2.75031473,-0.31453609,-1.43662097
19.550035093,571,586,2.74680878,-0.31432435,-1.43846835
19.565161832,572,587,2.74374109,-0.31338136,-1.43974834
19.586791153,572,587,2.74170332,-0.31247382,-1.44092884
19.610219117,573,588,2.73993868,-0.31206435,-1.44187423
19.624441119,573,588,2.73882334,-0.31140321,-1.44280688
19.647313216,574,589,2.73808855,-0.31078087,-1.44388620
19.669567593,574,589,2.73720993,-0.31260193,-1.44602290
19.684244449,575,590,2.73712513,-0.31535136,-1.44862981
19.707250551,576,591,2.73634573,-0.31942071,-1.44940740
19.730183233,576,591,2.73580463,-0.32175803,-1.44907905
19.745392555,577,592,2.73525526,-0.32330872,-1.44882729
19.766879728,578,593,2.73428500,-0.32378408,-1.44864374
19.789504579,578,593,2.73307660,-0.32398625,-1.44847713
19.804802071,579,594,2.73187077,-0.32516720,-1.44639890
19.827116998,579,594,2.73120402,-0.32612287,-1.44554032
19.849301088,580,595,2.73095229,-0.32571390,-1.44656392
19.864419960,580,595,2.73034227,-0.32398964,-1.44710356
19.887113417,581,596,2.72927041,-0.32039250,-1.44671798
19.909816624,582,597,2.72837909,-0.31600077,-1.44734764
19.924603818,582,597,2.72826055,-0.31178930,-1.44958762
19.946769421,583,598,2.72925319,-0.31102469,-1.45188580
19.969726934,584,599,2.73003506,-0.31315523,-1.45298068
19.985301605,584,599,2.73094829,-0.31435718,-1.45216111
20.007300909,585,600,2.73228987,-0.31459691,-1.45010934
20.038169673,586,601,2.73343788,-0.31494039,-1.45076614
20.044213846,586,601,2.73409819,-0.31455263,-1.45185385
20.067552552,586,601,2.73455922,-0.31468006,-1.45199461
20.097460519,587,602,2.73459657,-0.31431324,-1.45100841
20.104212905,588,603,2.73467525,-0.31415463,-1.45025497
20.127613334,588,603,2.73467525,-0.31415463,-1.45025497
20.149279004,589,604,2.73537163,-0.31457199,-1.45090830
20.164548051,589,604,2.73624248,-0.31558866,-1.45137303
20.186911335,590,605,2.73669871,-0.31631408,-1.45084792
20.209679995,591,606,2.73662131,-0.31620662,-1.45032276
20.224414767,591,606,2.73701487,-0.31527659,-1.45103650
20.246937635,592,607,2.73797545,-0.31516844,-1.45131452
20.269521133,592,607,2.73943680,-0.31563936,-1.45074975
20.284528558,593,608,2.74052966,-0.31650854,-1.45039325
20.315126971,594,609,2.74106097,-0.31654113,-1.45190540
20.329428512,594,609,2.74102535,-0.31632007,-1.45310630
20.360104579,595,610,2.74106918,-0.31617361,-1.45278758
20.366922689,596,611,2.74107710,-0.31637468,-1.45194269
20.390119829,596,611,2.74105067,-0.31692408,-1.45155429
20.412741038,597,612,2.74105067,-0.31692408,-1.45155429
20.427318743,597,612,2.74101085,-0.31705590,-1.45232470
20.449965748,598,613,2.74102695,-0.31688946,-1.45236199
20.474871742,599,614,2.74102695,-0.31688946,-1.45236199
20.486846046,599,614,2.74147257,-0.31742934,-1.45223239
20.510446074,600,615,2.74210323,-0.31793974,-1.45250123
20.532643212,600,615,2.74221885,-0.31826774,-1.45280895
20.547056483,601,616,2.74220278,-0.31843419,-1.45277175
20.569410083,601,616,2.74173545,-0.31833755,-1.45270905
20.591835329,602,617,2.74165587,-0.31824668,-1.45271463
20.609229944,603,618,2.74157277,-0.31849349,-1.45175827
20.629901523,603,618,2.74157277,-0.31849349,-1.45175827
20.652064780,604,619,2.74165230,-0.31858439,-1.45175268
20.666883555,604,619,2.74085635,-0.31826023,-1.45159561
20.689637032,605,620,2.74011113,-0.31802267,-1.45232050
20.712315168,606,621,2.73924552,-0.31805612,-1.45207282
20.726818378,606,621,2.73908569,-0.31845900,-1.45187041
20.749545861,607,622,2.73857840,-0.31964784,-1.45161878
20.771805363,608,623,2.73752342,-0.32097040,-1.45079792
20.787670719,608,623,2.73573502,-0.32186923,-1.44922223
20.810053624,609,624,2.73387899,-0.32307497,-1.44694058
20.832693421,609,624,2.73155123,-0.32691855,-1.44399674
20.846867555,610,625,2.72976090,-0.32959460,-1.44193108
20.869901692,610,625,2.72874156,-0.33276270,-1.43998005
20.892123283,611,626,2.72839882,-0.33730984,-1.43623303
20.907104578,612,627,2.72876803,-0.34212760,-1.43183614
20.929826166,612,627,2.73007434,-0.34601412,-1.42809271
20.951915195,613,628,2.73117013,-0.34848467,-1.42722024
20.967174415,613,628,2.73290888,-0.34930141,-1.42647711
20.989533906,614,629,2.73444549,-0.35069945,-1.42503194
21.012084835,615,630,2.73555158,-0.35156970,-1.42425020
21.027864464,615,630,2.73600777,-0.35151786,-1.42291540
21.049990814,616,631,2.73624163,-0.35117583,-1.42205127
21.071928640,617,632,2.73676264,-0.35076415,-1.42170510
21.086722266,617,632,2.73818676,-0.35004405,-1.42320521
21.109657792,618,633,2.73959966,-0.34985572,-1.42575483
21.131882111,618,633,2.74093805,-0.35020834,-1.42781280
21.147214420,619,634,2.74222879,-0.35052323,-1.42870556
21.169678441,619,634,2.74310274,-0.34952504,-1.42944386
21.191941770,620,635,2.74305251,-0.34844369,-1.43136566
21.208629480,621,636,2.74221950,-0.34889357,-1.43102101
21.229635513,621,636,2.74162301,-0.34856783,-1.43044380
21.251804925,622,637,2.74134374,-0.34746613,-1.43125102
21.266813323,622,637,2.74166884,-0.34584116,-1.43255455
21.289342969,623,638,2.74180078,-0.34576637,-1.43456462
21.312554538,624,639,2.74126428,-0.34634616,-1.43487612
21.327573929,624,639,2.74121274,-0.34650756,-1.43474082
21.349686735,625,640,2.74206017,-0.34749438,-1.43504660
21.371944492,625,640,2.74330964,-0.34833221,-1.43689240
21.388784729,626,641,2.74411964,-0.34908106,-1.43688522
21.417541084,627,642,2.74421191,-0.34939599,-1.43567297
21.431803000,627,642,2.74416481,-0.34952640,-1.43545867
21.447846066,628,643,2.74470014,-0.34932885,-1.43578215
21.469437093,628,643,2.74579863,-0.34880492,-1.43565388
21.491774656,629,644,2.74690754,-0.34848230,-1.43566408
21.507301016,630,645,2.74836779,-0.34718899,-1.43612147
21.529500407,630,645,2.74872674,-0.34497764,-1.43772795
21.552137648,631,646,2.74847722,-0.34151516,-1.43983664
21.567130822,631,646,2.74702966,-0.33589246,-1.43967918
21.589263219,632,647,2.74643406,-0.32924042,-1.44258040
21.625767625,633,648,2.74722529,-0.32103991,-1.44506781
21.634263554,633,648,2.74635984,-0.31545370,-1.44216650
21.651505826,634,649,2.74396924,-0.30920000,-1.43558889
21.671602450,634,649,2.74218318,-0.30486150,-1.43344851
21.694814322,635,650,2.74122959,-0.30198668,-1.43354326
21.710068553,636,651,2.74017595,-0.29761288,-1.43376541
21.731953456,636,651,2.73918223,-0.29247891,-1.43381059
21.754638894,637,652,2.73756969,-0.28891866,-1.43200222
21.769455065,637,652,2.73480839,-0.28717723,-1.42819367
21.791920940,638,653,2.73236443,-0.28463096,-1.42577403
21.814314267,639,654,2.73188051,-0.28152289,-1.42690882
21.829194190,639,654,2.73237010,-0.27628042,-1.42963466
21.859993091,640,655,2.73336573,-0.27185914,-1.43021473
21.874820674,640,655,2.73275529,-0.26899090,-1.42975932
21.889323361,641,656,2.73145227,-0.26609907,-1.43037266
21.911879861,642,657,2.72994131,-0.26356384,-1.43052243
21.934435117,642,657,2.72856656,-0.26117539,-1.43048575
21.949788995,643,658,2.72785680,-0.25837107,-1.43046127
21.972239127,643,658,2.72759770,-0.25628288,-1.43034643
22.003141938,644,659,2.72753016,-0.25488574,-1.43090571
22.017757541,645,660,2.72740810,-0.25380345,-1.43228623
22.032062148,645,660,2.72734723,-0.25301683,-1.43324897
22.055034284,646,661,2.72717502,-0.25125126,-1.43388056
22.069366010,646,661,2.72685659,-0.25053368,-1.43434703
22.092015605,647,662,2.72623611,-0.25058927,-1.43433869
22.114304219,648,663,2.72612572,-0.25034062,-1.43481769
22.137617124,648,663,2.72569510,-0.24992134,-1.43591660
22.151778758,649,664,2.72497532,-0.24900700,-1.43513033
22.174785784,649,664,2.72434547,-0.24760921,-1.43410513
22.189354804,650,665,2.72363013,-0.24698971,-1.43378281
22.212206023,651,666,2.72288969,-0.24699272,-1.43483698
22.234206537,651,666,2.72188861,-0.24607391,-1.43534614
22.249441433,652,667,2.72093494,-0.24494111,-1.43529064
22.271787980,652,667,2.72039708,-0.24390150,-1.43464382
22.294426128,653,668,2.71953674,-0.24449737,-1.43465947
22.310169534,653,668,2.71889191,-0.24378725,-1.43526421
22.331943353,654,669,2.71821857,-0.24210765,-1.43634725
22.354303191,655,670,2.71727941,-0.24060429,-1.43620082
22.371024380,655,670,2.71679965,-0.23979093,-1.43488927
22.391783705,656,671,2.71631670,-0.23941005,-1.43491179
22.414431804,657,672,2.71583942,-0.23897975,-1.43636743
22.429199572,657,672,2.71547779,-0.23891105,-1.43615940
22.452451735,658,673,2.71474624,-0.23825294,-1.43567169
22.474599024,658,673,2.71394769,-0.23747562,-1.43511712
22.489312181,659,674,2.71330870,-0.23728948,-1.43480809
22.511805716,659,674,2.71257562,-0.23709925,-1.43528430
22.535004727,660,675,2.71213326,-0.23652966,-1.43482189
22.549401619,661,676,2.71152341,-0.23655847,-1.43375088
22.572060975,661,676,2.71067954,-0.23602920,-1.43438157
22.594317194,662,677,2.70998991,-0.23510168,-1.43521297
22.617233149,662,677,2.70935084,-0.23529139,-1.43455097
22.631806653,663,678,2.70913714,-0.23526049,-1.43488691
22.654650666,664,679,2.70883735,-0.23499464,-1.43579785
22.669479282,664,679,2.70878910,-0.23549494,-1.43568044
22.693362668,665,680,2.70878910,-0.23549494,-1.43568044
22.722671416,666,681,2.70851312,-0.23558253,-1.43571190
22.729229536,666,681,2.70814771,-0.23502557,-1.43605385
22.751994917,667,682,2.70814771,-0.23502557,-1.43605385
22.774339340,667,682,2.70790020,-0.23512365,-1.43617912
22.789514521,668,683,2.70790020,-0.23512365,-1.43617912
22.812390948,668,683,2.70778136,-0.23559857,-1.43632139
22.835852076,669,684,2.70767925,-0.23553067,-1.43685731
22.849459331,670,685,2.70734887,-0.23618022,-1.43746767
22.872089535,670,685,2.70736483,-0.23601347,-1.43750693
22.894352659,671,686,2.70723095,-0.23627923,-1.43796433
22.909579571,671,686,2.70705315,-0.23632540,-1.43864319
22.934381058,672,687,2.70693493,-0.23680053,-1.43878536
22.954742851,672,687,2.70690632,-0.23679014,-1.43869166
22.969556614,673,688,2.70683055,-0.23690400,-1.43883457
22.991838659,674,689,2.70670770,-0.23714212,-1.43921406
23.014534321,674,689,2.70669866,-0.23775086,-1.43906959
23.037091373,675,690,2.70660281,-0.23762156,-1.43890870
23.060061580,676,691,2.70660281,-0.23762156,-1.43890870
23.074765860,676,691,2.70660281,-0.23762156,-1.43890870
23.097052143,677,692,2.70627288,-0.23759488,-1.43842522
23.112041845,677,692,2.70601768,-0.23755032,-1.43911474
23.134718367,678,693,2.70600181,-0.23771703,-1.43907536
23.157883608,679,694,2.70601768,-0.23755032,-1.43911474
23.172012374,679,694,2.70551989,-0.23784150,-1.43969159
23.195211807,680,695,2.70527554,-0.23804851,-1.43863259
23.217196668,681,696,2.70537998,-0.23794498,-1.43858353
23.231956174,681,696,2.70508164,-0.23863776,-1.43891703
23.254596486,682,697,2.70469929,-0.23870061,-1.43805076
23.276863599,682,697,2.70462153,-0.23860950,-1.43806149
23.293030579,683,698,2.70457351,-0.23910949,-1.43794291
23.314416004,683,698,2.70429007,-0.23895779,-1.43722265
23.337337523,684,699,2.70406012,-0.23851397,-1.43774205
23.351841448,685,700,2.70395435,-0.23899302,-1.43743575
23.374888875,685,700,2.70372669,-0.23865683,-1.43677123
23.397540342,686,701,2.70358374,-0.23857588,-1.43766111
23.412189347,686,701,2.70319449,-0.23907623,-1.43713621
23.434274306,687,702,2.70320528,-0.23904819,-1.43705851
23.456852465,688,703,2.70322138,-0.23888156,-1.43709817
23.472023450,688,703,2.70316569,-0.23914133,-1.43622822
23.494309150,689,704,2.70278459,-0.23875212,-1.43653147
23.516790996,689,704,2.70269460,-0.23923797,-1.43676618
23.531795904,690,705,2.70269460,-0.23923797,-1.43676618
23.555117649,691,706,2.70267652,-0.23919940,-1.43659469
23.577018190,691,706,2.70241488,-0.23949589,-1.43630949
23.595125831,692,707,2.70241488,-0.23949589,-1.43630949
23.615937745,692,707,2.70204465,-0.23907871,-1.43653518
23.636828389,693,708,2.70148150,-0.23935743,-1.43585992
23.651915330,694,709,2.70125589,-0.23922556,-1.43532748
23.675409918,694,709,2.70100669,-0.23904382,-1.43613455
23.697014491,695,710,2.70077035,-0.23969436,-1.43595701
23.712062090,695,710,2.70067818,-0.23864043,-1.43600681
23.734620886,696,711,2.70058799,-0.23912650,-1.43624097
23.757141336,697,712,2.70056995,-0.23908775,-1.43606953
23.771881891,697,712,2.70056995,-0.23908775,-1.43606953
23.794304032,698,713,2.70020703,-0.23931790,-1.43632022
23.816862287,698,713,2.70007352,-0.23890499,-1.43568533
23.831884360,699,714,2.70007352,-0.23890499,-1.43568533
23.855226348,700,715,2.70017832,-0.23880146,-1.43563671
23.877261980,700,715,2.70014936,-0.23879080,-1.43554287
23.894030680,701,716,2.69990209,-0.23888921,-1.43566733
23.914513647,701,716,2.69990209,-0.23888921,-1.43566733
23.936870674,702,717,2.69990209,-0.23888921,-1.43566733
23.952232039,703,718,2.69982450,-0.23879803,-1.43567830
23.974363642,703,718,2.69982450,-0.23879803,-1.43567830
23.997156323,704,719,2.69980651,-0.23875921,-1.43550689
24.011861990,704,719,2.69948692,-0.23862807,-1.43575989
24.034322513,705,720,2.69937145,-0.23883390,-1.43507183
24.057152636,705,720,2.69920412,-0.23854831,-1.43422585
24.071720641,706,721,2.69902537,-0.23839136,-1.43477315
24.094469523,706,721,2.69887386,-0.23803979,-1.43528293
24.117274120,707,722,2.69887386,-0.23803979,-1.43528293
24.132230542,708,723,2.69895141,-0.23813097,-1.43527187
24.154354320,708,723,2.69884489,-0.23802904,-1.43518911
24.177924482,709,724,2.69885595,-0.23800089,-1.43511156
24.191842696,710,725,2.69882698,-0.23799014,-1.43501773
24.214409823,710,725,2.69858154,-0.23771403,-1.43549858
24.237475715,711,726,2.69861194,-0.23833554,-1.43499726
24.252834373,711,726,2.69842909,-0.23763617,-1.43433661
24.274815780,712,727,2.69837418,-0.23802554,-1.43441146
24.297002288,713,728,2.69838528,-0.23799738,-1.43433396
24.313462132,713,728,2.69822269,-0.23767412,-1.43492141
24.334376248,714,729,2.69817898,-0.23803535,-1.43491876
24.365017102,715,730,2.69819008,-0.23800717,-1.43484123
24.379349179,715,730,2.69794960,-0.23817280,-1.43521457
24.394592197,716,731,2.69793169,-0.23813382,-1.43504321
24.417197802,716,731,2.69793169,-0.23813382,-1.43504321
24.439321689,717,732,2.69802552,-0.23805848,-1.43507222
24.458174910,718,733,2.69793010,-0.23792831,-1.43491197
24.477424131,718,733,2.69763947,-0.23780811,-1.43525903
24.499436742,719,734,2.69763947,-0.23780811,-1.43525903
24.516435637,719,734,2.69763947,-0.23780811,-1.43525903
24.537222305,720,735,2.69761046,-0.23779729,-1.43516521
24.559983736,721,736,2.69762159,-0.23776911,-1.43508769
24.574861897,721,736,2.69754407,-0.23767793,-1.43509882
24.597064991,722,737,2.69726937,-0.23797118,-1.43526064
24.619347766,722,737,2.69724034,-0.23796035,-1.43516682
24.641841735,723,738,2.69732900,-0.23802331,-1.43507816
24.665720909,724,739,2.69700734,-0.23826669,-1.43497473
24.680184349,724,739,2.69678081,-0.23792801,-1.43431172
24.694493400,724,739,2.69668549,-0.23779772,-1.43415158
24.717154405,725,740,2.69626387,-0.23818150,-1.43471546
24.739752359,726,741,2.69594271,-0.23849756,-1.43379757
24.754938169,726,742,2.69595914,-0.23833109,-1.43383787
24.777004201,727,743,2.69555026,-0.23889238,-1.43445504
24.799562698,728,744,2.69532369,-0.23855317,-1.43379221
24.815103782,728,744,2.69506264,-0.23905394,-1.43363672
24.837541223,729,745,2.69463852,-0.23988420,-1.43302835
24.860029618,729,745,2.69427078,-0.23956940,-1.43207111
24.874572429,730,746,2.69390998,-0.23942586,-1.43267823
24.896972420,731,747,2.69348442,-0.24015392,-1.43325407
24.920051166,731,747,2.69283520,-0.24255405,-1.43286518
24.935039416,732,748,2.69260348,-0.24716539,-1.42987048
24.957047385,732,748,2.69464535,-0.25581569,-1.42642162
24.979397938,733,749,2.69800961,-0.26631706,-1.42819085
24.994558720,734,750,2.70012532,-0.27183986,-1.43222114
25.017914948,734,750,2.70328829,-0.27860406,-1.43684906
25.048346537,735,751,2.70751694,-0.28901464,-1.44002777
25.054189269,735,751,2.70873934,-0.29609106,-1.44190786
25.078667483,736,752,2.70497075,-0.29628783,-1.44419605
25.099248590,737,753,2.69935355,-0.29647973,-1.44547184
25.114395948,737,753,2.69554734,-0.29873824,-1.44646676
25.137110813,738,754,2.69308199,-0.30298289,-1.44809967
25.159534743,738,754,2.69066122,-0.30576571,-1.45124460
25.175658227,739,755,2.68787936,-0.30651561,-1.45373581
25.196948351,740,756,2.68620744,-0.30661865,-1.45351899
25.219451586,740,756,2.68510051,-0.30812881,-1.44992167
25.234173566,741,757,2.68412826,-0.30862115,-1.44613982
25.257093216,741,757,2.68334265,-0.30673962,-1.44305511
25.280196694,742,758,2.68246381,-0.30396689,-1.44134240
25.294775252,742,758,2.68185741,-0.30119341,-1.44262958
25.317041048,743,759,2.68262450,-0.30022667,-1.44182632
25.339390057,744,760,2.68458571,-0.30199888,-1.44064822
25.357243541,744,760,2.68603403,-0.30358888,-1.43952121
25.384737512,745,761,2.68691379,-0.30371737,-1.43838443
25.400003601,746,762,2.68712046,-0.30395341,-1.43773244
25.414535320,746,762,2.68699473,-0.30354753,-1.43673378
25.437332726,747,763,2.68733024,-0.30450028,-1.43656269
25.459505334,747,763,2.68793093,-0.30693923,-1.43526974
25.474416180,748,764,2.68800775,-0.30802352,-1.43484151
25.497437281,749,765,2.68752794,-0.30883930,-1.43456463
25.519416511,749,765,2.68721708,-0.30967497,-1.43385962
25.534531153,750,766,2.68678050,-0.31132888,-1.43284725
25.557388078,750,766,2.68622206,-0.31322417,-1.43130540
25.579430156,751,767,2.68519795,-0.31480455,-1.43047577
25.594214758,752,768,2.68477070,-0.31611310,-1.43035285
25.619820090,752,768,2.68485945,-0.31754901,-1.42912366
25.639775474,753,769,2.68481498,-0.31808994,-1.42826423
25.654214796,753,769,2.68466418,-0.31793393,-1.42926498
25.676929450,754,770,2.68400761,-0.31821300,-1.42979877
25.700876867,754,770,2.68336693,-0.31925949,-1.42889066
25.721846055,755,771,2.68282856,-0.32022979,-1.42846860
25.737079835,755,771,2.68286012,-0.32047600,-1.42877376
25.759587997,756,772,2.68263237,-0.32043715,-1.42946171
25.781966281,757,773,2.68287826,-0.32130077,-1.42884559
25.797588996,757,773,2.68385965,-0.32358873,-1.42720518
25.819419415,758,774,2.68460164,-0.32510001,-1.42822793
25.842218938,759,775,2.68502845,-0.32603887,-1.42915419
25.856814492,759,775,2.68532522,-0.32599427,-1.42885742
25.879771260,760,776,2.68540451,-0.32581851,-1.42810876
25.909953074,761,777,2.68506346,-0.32603660,-1.42700223
25.917091519,761,777,2.68455657,-0.32701473,-1.42667511
25.939428148,762,778,2.68451887,-0.32823444,-1.42681703
25.962151882,762,778,2.68511575,-0.32874849,-1.42742954
25.977050556,763,779,2.68609896,-0.32966158,-1.42693845
26.001016530,764,780,2.68719622,-0.32971403,-1.42703731
26.022919597,764,780,2.68803794,-0.33010300,-1.42700580
26.037050769,765,781,2.68864133,-0.32977418,-1.42665717
26.059721456,765,781,2.68866878,-0.32957667,-1.42662203
26.090165674,766,782,2.68855693,-0.32947731,-1.42653325
26.097864000,766,782,2.68865382,-0.32940393,-1.42656754
26.119251040,767,783,2.68859983,-0.32872936,-1.42726172
26.142199681,768,784,2.68859983,-0.32872936,-1.42726172
26.157194086,768,784,2.68856558,-0.32872165,-1.42716488
26.188078961,769,785,2.68773758,-0.32874326,-1.42746073
26.202060829,770,786,2.68675751,-0.32818562,-1.42669862
26.217088046,770,786,2.68675751,-0.32818562,-1.42669862
26.255263324,771,787,2.68663583,-0.32827711,-1.42755260
26.262237009,771,787,2.68648753,-0.32829918,-1.42770090
26.276985069,772,788,2.68650535,-0.32837194,-1.42795282
26.299284275,772,788,2.68640855,-0.32844537,-1.42791851
26.322095307,773,789,2.68640855,-0.32844537,-1.42791851
26.337251644,774,790,2.68654447,-0.32879366,-1.42785947
26.367172470,775,791,2.68651836,-0.32875337,-1.42768509
26.382304637,775,791,2.68653761,-0.32858833,-1.42772765
26.397047861,775,791,2.68630011,-0.32789957,-1.42794259
26.420108701,776,792,2.68574078,-0.32804558,-1.42744574
26.450283854,777,793,2.68531769,-0.32856919,-1.42742077
26.473139671,778,794,2.68468123,-0.32865290,-1.42746323
26.479385315,778,794,2.68387750,-0.32787440,-1.42651910
26.502179431,779,795,2.68301677,-0.32762020,-1.42597844
26.517199308,779,795,2.68276971,-0.32795387,-1.42630109
26.539694682,780,796,2.68252031,-0.32849558,-1.42630122
26.564732486,780,796,2.68273245,-0.32890533,-1.42570166
26.586056485,781,797,2.68273245,-0.32890533,-1.42570166
26.599923775,781,797,2.68246424,-0.32964218,-1.42618998
26.621990146,782,798,2.68209425,-0.33059967,-1.42525809
26.636841330,783,799,2.68264176,-0.33177008,-1.42354480
26.659694411,783,799,2.68396652,-0.33227809,-1.42276563
26.682042266,784,800,2.68531781,-0.33247283,-1.42341577
26.697160429,784,800,2.68594813,-0.33218498,-1.42324291
26.727784908,785,801,2.68636624,-0.33286032,-1.42297662
26.743787219,786,802,2.68712115,-0.33432827,-1.42213029
26.756940717,786,802,2.68878842,-0.33583715,-1.42090604
26.780107364,787,803,2.69051171,-0.33707033,-1.42128774
26.802287758,787,803,2.69176781,-0.33757470,-1.42211781
26.817644857,788,804,2.69247928,-0.33881124,-1.42231378
26.839987387,789,805,2.69316811,-0.33996973,-1.42045847
26.861964080,789,805,2.69393231,-0.34122142,-1.41859571
26.877858496,790,806,2.69502307,-0.34247683,-1.41841355
26.900051552,790,806,2.69644182,-0.34375786,-1.41864533
26.924963364,791,807,2.69801440,-0.34480751,-1.41905368
26.936919997,792,808,2.69896570,-0.34413831,-1.42083027
26.959946470,792,808,2.69758464,-0.34369594,-1.42031599
26.991267973,793,809,2.69502211,-0.34565384,-1.41468738
26.997094136,793,809,2.69387285,-0.34710467,-1.41151026
27.021377699,794,810,2.69355882,-0.34782271,-1.41406252
27.042078284,795,811,2.69397471,-0.34651473,-1.41589516
27.064571252,795,811,2.69430114,-0.34704535,-1.41457468
27.080195640,796,812,2.69480197,-0.34824841,-1.41330183
27.102438134,797,813,2.69557301,-0.34857814,-1.41381940
27.132783776,797,813,2.69622476,-0.34896739,-1.41466017
27.139586705,798,814,2.69675094,-0.34938915,-1.41529086
27.162223655,798,814,2.69708955,-0.35039013,-1.41484807
27.184369985,799,815,2.69742731,-0.35097611,-1.41459509
27.201191571,799,815,2.69783481,-0.35127217,-1.41460212
27.222647886,800,816,2.69808737,-0.35114654,-1.41441255
27.244711705,801,817,2.69805925,-0.35110697,-1.41423705
27.259787514,801,817,2.69767285,-0.35088344,-1.41448284
27.282487194,802,818,2.69744838,-0.35104873,-1.41484792
27.304445813,802,818,2.69708321,-0.35077845,-1.41412496
27.327391699,803,819,2.69657057,-0.35035042,-1.41394988
27.342273233,804,820,2.69579125,-0.35023989,-1.41445563
27.366046646,804,820,2.69546791,-0.34946215,-1.41421826
27.379272231,805,821,2.69546791,-0.34946215,-1.41421826
27.409766363,806,822,2.69543295,-0.34921782,-1.41390988
27.424637073,806,822,2.69543295,-0.34921782,-1.41390988
27.439675426,807,823,2.69540506,-0.34917803,-1.41373454
27.462153580,807,823,2.69534236,-0.34889387,-1.41325088
27.484523804,808,824,2.69511151,-0.34920946,-1.41268223
27.499416939,808,824,2.69511151,-0.34920946,-1.41268223
27.530878410,809,825,2.69523087,-0.34831972,-1.41273975
27.544595207,810,826,2.69512349,-0.34700319,-1.41375233
27.559393109,810,826,2.69503976,-0.34513424,-1.41552972
27.581799451,811,827,2.69569898,-0.34200318,-1.41604904
27.604762451,811,827,2.69663003,-0.34156395,-1.42019295
27.620320207,812,828,2.69638019,-0.34091412,-1.42182669
27.641860324,813,829,2.69460261,-0.33837649,-1.42084285
27.664583262,813,829,2.69063836,-0.33527086,-1.41797365
27.686801031,814,830,2.68774947,-0.33188827,-1.41870672
27.701850609,814,830,2.68441855,-0.32960837,-1.41918898
27.724722033,815,831,2.67783984,-0.32930158,-1.41248479
27.739543213,815,831,2.67317340,-0.32552728,-1.40663609
27.762069487,816,832,2.67083251,-0.32171658,-1.40617573
27.784843579,817,833,2.66866835,-0.31744238,-1.40884271
27.807370017,818,834,2.66425869,-0.31196320,-1.40954721
27.825152829,818,834,2.65867149,-0.30757245,-1.40563973
27.845055913,818,834,2.65385464,-0.30426908,-1.39989930
27.859504145,819,835,2.65018197,-0.30092205,-1.39761843
27.882450331,819,835,2.64672096,-0.29730898,-1.39950775
27.904457463,820,836,2.64349227,-0.29311305,-1.40079341
27.919758696,821,837,2.63859196,-0.29044346,-1.39752997
27.944863484,822,838,2.63251424,-0.28703359,-1.39265418
27.964536698,822,838,2.62603957,-0.28269087,-1.39005804
27.980766475,823,839,2.62072562,-0.27717307,-1.38954399
28.001945481,823,839,2.61768941,-0.27262569,-1.39122220
28.035641378,824,840,2.61669081,-0.26909370,-1.39115025
28.047412724,825,841,2.61667713,-0.26489886,-1.39069364
28.062136338,825,841,2.61702894,-0.26076195,-1.39253630
28.084635026,826,842,2.61873689,-0.25811702,-1.39498209
28.099426101,826,842,2.62116029,-0.25538283,-1.39935094
28.122057163,827,843,2.62461018,-0.25241799,-1.40374866
28.144684616,828,844,2.62841814,-0.25049060,-1.40609783
28.162257393,828,844,2.63032236,-0.24983823,-1.40565573
28.182199725,829,845,2.63017650,-0.24840857,-1.40539160
28.204702744,829,845,2.62898770,-0.24653035,-1.40680953
28.221791862,830,846,2.62788522,-0.24521018,-1.40863104
28.243365417,831,847,2.62794962,-0.24444223,-1.40983578
28.264654323,831,847,2.62866586,-0.24397123,-1.41069623
28.282101084,832,848,2.62967647,-0.24291768,-1.41202265
28.301878729,832,848,2.63017107,-0.24243690,-1.41366723
28.324593895,833,849,2.63057616,-0.24217973,-1.41577040
28.341614148,833,849,2.63077574,-0.24251877,-1.41813346
28.362221068,834,850,2.63057318,-0.24326004,-1.41970563
28.384333723,835,851,2.63053738,-0.24338024,-1.41948963
28.407661635,835,851,2.63076344,-0.24400509,-1.41862784
28.421949347,836,852,2.63056613,-0.24617982,-1.41873607
28.445839918,837,853,2.62971888,-0.24773948,-1.41648482
28.467368253,837,853,2.62893442,-0.24982724,-1.41409120
28.481923767,838,854,2.62777900,-0.25308941,-1.41222956
28.504449823,838,854,2.62504196,-0.25722718,-1.40907231
28.526913963,839,855,2.62020551,-0.26214301,-1.40364636
28.542702947,839,855,2.61440143,-0.26663825,-1.39932846
28.564498104,840,856,2.60814357,-0.27280882,-1.39424487
28.586932418,841,857,2.60370171,-0.27941079,-1.38728766
28.601806376,841,857,2.59844424,-0.28442547,-1.38043004
28.631862482,842,858,2.59244383,-0.28889798,-1.37692056
28.647294991,843,859,2.58558140,-0.29509406,-1.37116236
28.664843927,843,859,2.57774991,-0.30142823,-1.36148787
28.685040950,844,860,2.56782678,-0.30415898,-1.35273492
28.706968478,844,860,2.55787414,-0.30528017,-1.34725193
28.722087906,845,861,2.54844379,-0.30617859,-1.34163161
28.744531025,846,862,2.54034845,-0.30646792,-1.33689241
28.767091357,846,862,2.53240122,-0.30880666,-1.32947280
28.781800040,847,863,2.52772951,-0.31279747,-1.32256106
28.804965068,847,863,2.52544066,-0.31381999,-1.32066812
28.826922514,848,864,2.52453967,-0.31177643,-1.32273689
28.850116189,848,864,2.52403425,-0.31106245,-1.32269970
28.864372808,849,865,2.52339750,-0.31267530,-1.31825650
28.887124931,850,866,2.52124292,-0.31368264,-1.31510738
28.905278341,850,866,2.51876571,-0.31355798,-1.31502644
28.931866708,851,867,2.51877841,-0.31258222,-1.31609509
28.946991284,851,867,2.51963646,-0.31280613,-1.31784362
28.961824333,852,868,2.51960636,-0.31296614,-1.31778582
28.992689219,853,869,2.51960636,-0.31296614,-1.31778582
29.007809707,853,869,2.52087014,-0.31320741,-1.32070945
29.029609631,854,870,2.52231524,-0.31460881,-1.32373469
29.052132931,855,871,2.52284105,-0.31538862,-1.32468157
29.067027781,855,871,2.52313911,-0.31581986,-1.32477558
29.081966127,856,872,2.52422060,-0.31635147,-1.32692639
29.106768262,856,872,2.52684734,-0.31718027,-1.32899687
29.128621580,857,873,2.53129122,-0.31816841,-1.33037632
29.143341290,857,873,2.53772733,-0.31884309,-1.33297710
29.164511411,858,874,2.54571911,-0.31905236,-1.33786974
29.194584626,859,875,2.55632054,-0.32052844,-1.34568229
29.203879444,859,875,2.56953669,-0.32270917,-1.35441104
29.224622024,860,876,2.58444600,-0.32396328,-1.36456180
29.249006436,860,876,2.59948736,-0.32522140,-1.37578932
29.269483221,861,877,2.61351646,-0.32540754,-1.38864343
29.284479608,862,878,2.62458250,-0.32581109,-1.39974468
29.310063521,862,878,2.63167804,-0.32736961,-1.40778167
29.332899148,863,879,2.63573826,-0.32875405,-1.41457327
29.344622756,863,879,2.63927507,-0.32942972,-1.42091778
29.367141595,864,880,2.64338643,-0.32936824,-1.42755898
29.383962957,865,881,2.64907183,-0.32831882,-1.43573346
29.405724063,865,881,2.65644619,-0.32663039,-1.44417453
29.435057525,866,882,2.66506361,-0.32531114,-1.45280486
29.449416073,867,883,2.67463253,-0.32429474,-1.46212459
29.465329567,867,883,2.68376987,-0.32315003,-1.47118733
29.495326876,868,884,2.69113426,-0.32132664,-1.47917668
29.510168027,868,884,2.69694917,-0.31902165,-1.48573186
29.524498569,869,885,2.70149656,-0.31728168,-1.49120258
29.547178390,869,885,2.70448845,-0.31625987,-1.49471395
29.569706876,870,886,2.70563796,-0.31596241,-1.49828458
29.584573994,871,887,2.70582611,-0.31512687,-1.50065266
29.607100980,871,887,2.70652096,-0.31385481,-1.50266619
29.623905957,872,888,2.70825373,-0.31320165,-1.50587233
29.644430350,872,888,2.71001285,-0.31255720,-1.50872065
29.667399278,873,889,2.71160295,-0.31182856,-1.50994863
29.683690235,874,890,2.71367092,-0.31141725,-1.51145043
29.704360825,874,890,2.71486662,-0.31237380,-1.51259584
29.727424975,875,891,2.71553070,-0.31293717,-1.51311657
29.749813205,875,891,2.71556330,-0.31294294,-1.51320955
29.764814916,876,892,2.71556330,-0.31294294,-1.51320955
29.787300242,877,893,2.71527382,-0.31283821,-1.51309612
29.809406708,877,893,2.71474969,-0.31239276,-1.51185753
29.824411741,878,894,2.71445787,-0.31240097,-1.51109281
29.847456299,878,894,2.71442526,-0.31239509,-1.51099976
29.870089848,879,895,2.71443647,-0.31222867,-1.51103856
29.886086873,880,896,2.71460661,-0.31275333,-1.51059269
29.906838692,880,896,2.71398379,-0.31279421,-1.50905174
29.930173472,881,897,2.71306642,-0.31286381,-1.50727674
29.946266376,881,897,2.71258104,-0.31266465,-1.50590058
29.966801024,882,898,2.71237066,-0.31276000,-1.50512956
29.992510780,883,899,2.71237066,-0.31276000,-1.50512956
30.005234738,883,899,2.71201718,-0.31274593,-1.50462760
30.028673923,884,900,2.71185545,-0.31292367,-1.50375682
30.049755346,884,900,2.71185545,-0.31292367,-1.50375682
30.065886459,885,901,2.71089866,-0.31276323,-1.50265155
30.087050295,886,902,2.70986165,-0.31203120,-1.50210838
30.111014704,886,902,2.70923370,-0.31211307,-1.50162895
30.127403044,887,903,2.70869453,-0.31185868,-1.50043501
30.146796688,887,904,2.70793977,-0.31174443,-1.49953170
30.169747509,888,905,2.70746704,-0.31176794,-1.49882255
30.185915755,888,905,2.70718134,-0.31163675,-1.49817906
30.206796349,889,906,2.70734760,-0.31216091,-1.49773037
30.230105937,890,907,2.70732752,-0.31279874,-1.49570485
30.253724373,890,907,2.70741642,-0.31454606,-1.49380375
30.266881585,891,908,2.70694109,-0.31629808,-1.49279063
30.290015695,891,908,2.70665423,-0.31821769,-1.49087532
30.306675966,892,909,2.70624195,-0.32083681,-1.48967304
30.326806307,892,909,2.70522650,-0.32351431,-1.48754653
30.359607729,894,911,2.70389983,-0.32622187,-1.48472801
30.366475127,894,911,2.70250133,-0.32925124,-1.48172749
30.387596643,895,912,2.70098173,-0.33156776,-1.47877410
30.417500971,895,912,2.69999598,-0.33274831,-1.47725039
30.426393915,896,913,2.69928232,-0.33447231,-1.47609499
30.447118366,896,913,2.69766182,-0.33608350,-1.47282781
30.469528052,897,914,2.69578670,-0.33684499,-1.46934957
30.486863239,898,915,2.69529652,-0.33880755,-1.46763255
30.507091875,898,915,2.69326748,-0.34119674,-1.46553097
30.529516520,899,916,2.68911409,-0.34388799,-1.45999111
30.546234999,899,916,2.68471845,-0.34573642,-1.45522017
30.567384934,900,917,2.68098827,-0.34679225,-1.45174345
30.590148175,901,918,2.67760440,-0.34780460,-1.44770601
30.606430841,901,918,2.67402981,-0.34951523,-1.44165087
30.634225766,902,919,2.66998752,-0.35173164,-1.43464094
30.649378260,902,919,2.66558220,-0.35326535,-1.42807993
30.666309870,903,920,2.66127914,-0.35343475,-1.42421707
30.694586547,904,921,2.65704656,-0.35323210,-1.42000921
30.709806185,904,921,2.65269263,-0.35424201,-1.41410114
30.733886512,905,922,2.64807667,-0.35597506,-1.40829868
30.749080465,905,922,2.64435145,-0.35697406,-1.40348600
30.769440570,906,923,2.64038893,-0.35829645,-1.39862007
30.786757150,906,923,2.63563843,-0.36011039,-1.39335786
30.807561744,907,924,2.63024828,-0.36045155,-1.38754096
30.829449127,908,925,2.62539059,-0.35985178,-1.38298783
30.846129537,908,925,2.62096334,-0.36057004,-1.37787781
30.874518770,909,926,2.61664489,-0.36158032,-1.37297499
30.889866347,909,926,2.61166190,-0.36316489,-1.36820083
30.906370529,910,927,2.60614795,-0.36403760,-1.36378455
30.926996954,911,928,2.60081391,-0.36256601,-1.35990040
30.949565859,911,928,2.59545819,-0.36055302,-1.35508122
30.967272306,912,929,2.59056650,-0.35864256,-1.35070237
30.986807033,912,929,2.58627791,-0.35651018,-1.34779486
31.009938324,913,930,2.58334077,-0.35599594,-1.34650784
31.026286726,914,931,2.58103917,-0.35559767,-1.34559989
31.050476579,914,931,2.57853830,-0.35524462,-1.34481109
31.069712214,915,932,2.57611695,-0.35491641,-1.34422386
31.099580887,916,933,2.57251631,-0.35509558,-1.34257894
31.109101506,916,933,2.56805711,-0.35555615,-1.33993874
31.137134617,917,934,2.56379955,-0.35569190,-1.33807584
31.152349628,917,934,2.55986643,-0.35491783,-1.33620049
31.168692778,918,935,2.55654494,-0.35361158,-1.33425697
31.192674695,919,936,2.55355540,-0.35281659,-1.33341395
31.212090041,919,936,2.55086175,-0.35239509,-1.33325549
31.229133013,920,937,2.54856219,-0.35185767,-1.33284547
31.250263825,920,937,2.54689060,-0.35166206,-1.33292488
31.272391504,921,938,2.54578310,-0.35113941,-1.33294894
31.289309873,921,938,2.54528894,-0.35106240,-1.33405975
31.309440717,922,939,2.54488682,-0.35082881,-1.33496972
31.331813464,922,939,2.54563908,-0.34990261,-1.33644190
31.350245198,923,940,2.54650336,-0.34938832,-1.33835269
31.369633016,924,941,2.54796724,-0.34849416,-1.33977748
31.399632886,925,942,2.55010374,-0.34744103,-1.34175508
31.416145020,925,942,2.55222815,-0.34680986,-1.34396013
31.431267497,926,943,2.55463838,-0.34678943,-1.34593025
31.452197561,926,943,2.55744318,-0.34610185,-1.34820182
31.469449155,927,944,2.56051573,-0.34491443,-1.35058769
31.489446302,927,944,2.56380701,-0.34363633,-1.35321848
31.520013181,928,945,2.56684403,-0.34265521,-1.35606864
31.528592392,929,946,2.56972057,-0.34130378,-1.35889855
31.550313010,929,946,2.57213642,-0.33917992,-1.36205027
31.572936637,930,947,2.57339069,-0.33782168,-1.36628242
31.588426301,930,947,2.57371413,-0.33689647,-1.36818015
31.610466931,931,948,2.57426533,-0.33533641,-1.36977244
31.631855041,932,949,2.57440369,-0.33410461,-1.37327713
31.648695026,932,949,2.57312715,-0.33371497,-1.37478931
31.669492587,933,950,2.57169294,-0.33284974,-1.37522929
31.693497209,933,950,2.56970536,-0.33195792,-1.37602882
31.716167090,934,951,2.56785392,-0.33070594,-1.37778764
31.730434788,935,952,2.56508538,-0.33036907,-1.37872458
31.751734522,935,952,2.56289020,-0.32901984,-1.37917325
31.776145009,936,953,2.56081145,-0.32714017,-1.37935714
31.789393967,936,953,2.55847260,-0.32560513,-1.38058138
31.811802481,937,954,2.55638901,-0.32342607,-1.38041330
31.828334805,938,955,2.55476323,-0.32264467,-1.37952504
31.851293664,938,955,2.55324352,-0.32224534,-1.37936265
31.872029278,939,956,2.55123305,-0.32094911,-1.38030502
31.888759647,939,956,2.54799782,-0.32013705,-1.37958130
31.910539904,940,957,2.54426152,-0.31845284,-1.37694292
31.932125971,941,958,2.54072162,-0.31653239,-1.37414821
31.949267359,941,958,2.53744693,-0.31581534,-1.37321238
31.974184473,942,959,2.53504133,-0.31563809,-1.37299647
31.992652242,942,959,2.53360979,-0.31499426,-1.37357963
32.009174811,943,960,2.53256287,-0.31434802,-1.37377897
32.031608218,944,961,2.53193621,-0.31320720,-1.37440267
32.051875374,944,961,2.53125905,-0.31233281,-1.37556794
32.068992311,945,962,2.52892794,-0.31230402,-1.37770824
32.092039715,945,962,2.52515174,-0.31150914,-1.37900523
32.112131742,946,963,2.52041522,-0.30936161,-1.37939066
32.128897511,946,963,2.51499332,-0.30667659,-1.38020562
32.151111466,947,964,2.50943170,-0.30323757,-1.38126426
32.171982548,948,965,2.50476004,-0.30167873,-1.38167613
32.197387428,949,966,2.50118773,-0.30249772,-1.38331899
32.211768736,949,966,2.50029637,-0.30304937,-1.38544836
32.232714055,950,967,2.50214486,-0.30396400,-1.38629713
32.248750457,950,967,2.50505421,-0.30590823,-1.38708420
32.271197319,951,968,2.50735261,-0.30688200,-1.38781799
32.291721825,951,968,2.50859436,-0.30718190,-1.38831166
32.309770669,952,969,2.50878494,-0.30706092,-1.38912584
32.331249680,952,969,2.50764286,-0.30658688,-1.38953699
32.352826326,953,970,2.50547908,-0.30587312,-1.38929004
32.368719811,954,971,2.50335856,-0.30496046,-1.38903083
32.391131837,954,971,2.50089778,-0.30395428,-1.38938634
32.411885590,955,972,2.49750169,-0.30261978,-1.38941161
32.435322546,956,973,2.49345168,-0.30108833,-1.38920763
32.450853068,956,973,2.49023221,-0.30012828,-1.39006276
32.471933343,957,974,2.48903941,-0.29962362,-1.39066943
32.494525772,957,974,2.49194223,-0.30011957,-1.38927160
32.511414831,958,975,2.49908897,-0.30201929,-1.39110314
32.532160432,959,976,2.50894291,-0.30646111,-1.39808396
32.554504526,959,976,2.52029378,-0.31169071,-1.40436295
32.571645002,960,977,2.53211440,-0.31680748,-1.40805746
32.608445577,961,978,2.54283651,-0.32215088,-1.41398834
32.614602044,961,978,2.55320649,-0.32512038,-1.41717237
32.631116065,961,978,2.56377631,-0.32712176,-1.42126087
32.653444833,962,979,2.57306377,-0.32980730,-1.42636653
32.675071996,963,980,2.58184441,-0.32978273,-1.43146901
32.690967781,963,980,2.58911667,-0.32864131,-1.43233484
32.711912362,964,981,2.59649927,-0.32512456,-1.43526145
32.734656590,965,982,2.60318082,-0.32260935,-1.44000900
32.751282122,965,982,2.60872585,-0.31992227,-1.44394188
32.771947991,966,983,2.61486594,-0.31707360,-1.44474324
32.802229641,966,983,2.62272084,-0.31521739,-1.44781015
32.810935446,967,984,2.62813368,-0.31168007,-1.45242466
32.834171306,967,984,2.63021749,-0.30719037,-1.45246191
32.854568394,968,985,2.63068311,-0.30682104,-1.44957459
32.871021623,969,986,2.63015370,-0.31065170,-1.44718566
32.895397611,969,986,2.62920975,-0.31424565,-1.44749366
32.915843660,970,987,2.62687771,-0.31746808,-1.44747355
32.931371042,970,987,2.62352910,-0.32025696,-1.44403973
32.957035778,971,988,2.61930224,-0.32275920,-1.43960950
32.974859703,972,989,2.61527642,-0.32381957,-1.43741346
32.991069268,972,989,2.61276183,-0.32267784,-1.43637311
33.013756186,973,990,2.61285200,-0.32107914,-1.43584320
33.034581695,974,991,2.61431859,-0.32030418,-1.43550842
33.051307795,974,991,2.61571802,-0.31870504,-1.43584257
33.081580743,975,992,2.61662939,-0.31595576,-1.43713466
33.094695582,975,992,2.61800951,-0.31253797,-1.44031659
33.111779448,976,993,2.61822216,-0.30954891,-1.44280978
33.134312756,977,994,2.61793974,-0.30662122,-1.44519858
33.154310113,977,994,2.61752527,-0.30521287,-1.44822955
33.171212509,978,995,2.61637149,-0.30370232,-1.45016896
33.193549957,978,995,2.61505234,-0.30331778,-1.45122797
33.214386789,979,996,2.61286014,-0.30300053,-1.45257339
33.232667432,979,996,2.61082200,-0.30364171,-1.45584894
33.254135070,980,997,2.60877350,-0.30687522,-1.45893813
33.274603849,981,998,2.60614583,-0.31217170,-1.45880698
33.292107880,981,998,2.60301988,-0.31744487,-1.45586281
33.313797525,982,999,2.59895352,-0.32144698,-1.45264048
33.334986428,982,999,2.59435027,-0.32422806,-1.45337437
33.351020682,983,1000,2.58985671,-0.32483656,-1.45547715
33.373618151,983,1000,2.58552000,-0.32541570,-1.45543562
33.394982137,984,1001,2.57987073,-0.32750834,-1.45461321
33.413253741,985,1002,2.57408658,-0.32929322,-1.45238864
33.433817571,985,1002,2.57047370,-0.33040331,-1.45357864
33.454339187,986,1003,2.56846893,-0.33083128,-1.45736339
33.471497127,986,1003,2.56683424,-0.33145086,-1.45924530
33.494119653,987,1004,2.56518554,-0.33295458,-1.45811955
33.514446000,988,1005,2.56401371,-0.33511139,-1.45642343
33.531079875,988,1005,2.56431211,-0.33254055,-1.45607905
33.553868587,989,1006,2.56563930,-0.32811733,-1.45821920
33.574894033,990,1007,2.56617221,-0.32527655,-1.46009146
33.592699561,990,1007,2.56841249,-0.32343469,-1.45777395
33.613829650,991,1008,2.57126478,-0.32066463,-1.45375023
33.634469793,991,1008,2.57445521,-0.31384786,-1.45181606
33.650791493,992,1009,2.57801173,-0.30659491,-1.45441675
33.673878871,993,1010,2.58210078,-0.29944192,-1.45278074
33.695080780,993,1010,2.58935460,-0.29306878,-1.45104701
33.717137589,994,1011,2.59826927,-0.28692391,-1.44856850
33.733713940,994,1011,2.60780951,-0.28002300,-1.44888535
33.754554831,995,1012,2.61718731,-0.27330502,-1.44761150
33.777360626,996,1013,2.62775567,-0.26683537,-1.44711240
33.793547716,996,1013,2.63897237,-0.26125858,-1.44703077
33.814430380,997,1014,2.64971253,-0.25570708,-1.44627242
33.837214729,997,1014,2.66016277,-0.24897184,-1.44652172
33.860946909,998,1015,2.66888260,-0.24261980,-1.44967555
33.882112411,999,1016,2.67542870,-0.23617963,-1.45428285
33.896867551,999,1016,2.68098183,-0.22880546,-1.45652331
33.913931746,1000,1017,2.68558914,-0.22101240,-1.45745330
33.935899703,1000,1017,2.68949236,-0.21442164,-1.46020375
33.957024087,1001,1018,2.69413895,-0.20978104,-1.46558156
33.973685288,1001,1018,2.69889884,-0.20828092,-1.47030987
33.996303892,1002,1019,2.70119109,-0.20674884,-1.46994688
34.017068708,1003,1020,2.70040858,-0.20587982,-1.46969817
34.034037218,1003,1020,2.69931729,-0.20561409,-1.47150429
34.056818442,1004,1021,2.69924770,-0.20644952,-1.47450702
34.078109068,1004,1021,2.69935491,-0.20739974,-1.47679198
34.093545283,1005,1022,2.69729046,-0.20784454,-1.47698577
34.116165160,1006,1023,2.69403118,-0.20728249,-1.47683220
34.137006250,1006,1023,2.69266534,-0.20730846,-1.47666855
34.153830650,1007,1024,2.69206662,-0.20859653,-1.47532055
34.191737855,1008,1025,2.69145083,-0.21059643,-1.47513757
34.196937168,1008,1025,2.69086148,-0.21172285,-1.47542779
34.214182098,1009,1026,2.68963868,-0.21287157,-1.47394759
34.236756298,1009,1026,2.68776925,-0.21556516,-1.47184496
34.256990940,1010,1027,2.68638824,-0.21894101,-1.47070132
34.274054983,1011,1028,2.68477465,-0.22167314,-1.46949808
34.296288616,1011,1028,2.68349411,-0.22345126,-1.46882832
34.317116974,1012,1029,2.68207348,-0.22460560,-1.46739543
34.335065622,1012,1029,2.68088024,-0.22518909,-1.46737579
34.356209310,1013,1030,2.67907304,-0.22586473,-1.46698581
34.377246149,1013,1030,2.67771112,-0.22646076,-1.46657993
34.394237567,1014,1031,2.67650061,-0.22716680,-1.46589953
34.417555745,1015,1032,2.67615896,-0.22714029,-1.46586476
34.437186556,1015,1032,2.67584979,-0.22685017,-1.46616259
34.454087486,1016,1033,2.67556109,-0.22710869,-1.46615274
34.476142644,1017,1034,2.67479221,-0.22752801,-1.46532782
34.496952957,1017,1034,2.67452180,-0.22717716,-1.46502273
34.529508655,1018,1035,2.67454768,-0.22698199,-1.46498590
34.536481746,1018,1035,2.67476681,-0.22691018,-1.46538649
34.556978201,1019,1036,2.67519464,-0.22662765,-1.46568891
34.573575600,1019,1036,2.67562854,-0.22576464,-1.46577443
34.596193381,1020,1037,2.67564232,-0.22529711,-1.46642368
34.617247761,1021,1038,2.67564232,-0.22529711,-1.46642368
34.633644774,1021,1038,2.67591236,-0.22483466,-1.46674986
34.656200675,1022,1039,2.67660474,-0.22370087,-1.46675171
34.677528494,1022,1039,2.67720899,-0.22303189,-1.46734922
34.693607999,1023,1040,2.67714853,-0.22284452,-1.46765223
34.716672144,1024,1041,2.67675963,-0.22290412,-1.46723527
34.737024399,1024,1041,2.67689911,-0.22274173,-1.46764740
34.753801447,1025,1042,2.67758538,-0.22288014,-1.46894839
34.777190277,1026,1043,2.67749338,-0.22295695,-1.46891916
34.798740581,1026,1043,2.67692738,-0.22340288,-1.46820600
34.813570118,1027,1044,2.67651778,-0.22372656,-1.46807554
34.836650723,1027,1044,2.67659962,-0.22372182,-1.46880000
34.858889021,1028,1045,2.67658634,-0.22388832,-1.46875854
34.874699639,1028,1045,2.67603361,-0.22446866,-1.46747884
34.896109298,1029,1046,2.67605243,-0.22497377,-1.46655475
34.918963145,1030,1047,2.67599375,-0.22608212,-1.46672561
34.934227329,1030,1047,2.67554306,-0.22771780,-1.46644814
34.964193575,1031,1048,2.67528902,-0.22998030,-1.46506360
34.980088265,1032,1049,2.67384353,-0.23342631,-1.46305338
34.994062522,1032,1049,2.67098958,-0.23880633,-1.45957394
35.016060343,1033,1050,2.66762990,-0.24605007,-1.45643673
35.039865215,1033,1050,2.66240623,-0.25391273,-1.45607234
35.059435264,1034,1051,2.65528832,-0.26122991,-1.45543843
35.076841157,1034,1051,2.64624220,-0.26734104,-1.45262147
35.098749372,1035,1052,2.63842528,-0.27112949,-1.44973080
35.119492428,1036,1053,2.63369985,-0.27482356,-1.44874670
35.136289065,1036,1053,2.63014949,-0.27770115,-1.44796554
35.159139142,1037,1054,2.62754379,-0.27927191,-1.44551342
35.186872754,1038,1055,2.62583671,-0.27706658,-1.44305116
35.196808088,1038,1055,2.62767304,-0.26855906,-1.44357144
35.219438206,1039,1056,2.63087789,-0.25639451,-1.44552922
35.239576236,1039,1056,2.63246026,-0.24637450,-1.44816781
35.255868528,1040,1057,2.63303166,-0.24294715,-1.44556639
35.279115807,1040,1057,2.63209281,-0.24152133,-1.44474345
35.299571209,1041,1058,2.62786850,-0.23745428,-1.44732436
35.316867872,1042,1059,2.62193736,-0.23496262,-1.44638955
35.339363024,1042,1059,2.61698443,-0.23334043,-1.44113178
35.359229480,1043,1060,2.61285862,-0.23085427,-1.43874703
35.376350010,1043,1060,2.60990619,-0.22773617,-1.43931365
35.399654282,1044,1061,2.60869579,-0.22375077,-1.43945942
35.419570583,1045,1062,2.60865020,-0.22080884,-1.43991279
35.437262608,1045,1062,2.60917156,-0.21850136,-1.44071685
35.460248375,1046,1063,2.60997181,-0.21525280,-1.44235648
35.479516484,1046,1063,2.61055008,-0.21200263,-1.44396149
35.497543213,1047,1064,2.61044890,-0.20898554,-1.44451879
35.518488250,1048,1065,2.61037303,-0.20669408,-1.44577812
35.541963622,1048,1065,2.61075419,-0.20572328,-1.44681190
35.556787568,1049,1066,2.61121307,-0.20611602,-1.44720722
35.578785657,1049,1066,2.61179538,-0.20623817,-1.44760373
35.599619237,1050,1067,2.61174946,-0.20560687,-1.44759194
35.616099819,1051,1068,2.61122724,-0.20481193,-1.44775215
35.638611322,1051,1068,2.61010756,-0.20449426,-1.44734453
35.660118485,1052,1069,2.60886924,-0.20465174,-1.44607433
35.676820202,1052,1069,2.60749122,-0.20397004,-1.44537939
35.698955069,1053,1070,2.60611205,-0.20314138,-1.44517828
35.719617684,1054,1071,2.60496408,-0.20237101,-1.44480753
35.736377164,1054,1071,2.60407610,-0.20152961,-1.44485151
35.758741951,1055,1072,2.60404406,-0.20172479,-1.44488050
35.782443576,1055,1072,2.60412059,-0.20181479,-1.44486380
35.796994021,1056,1073,2.60410644,-0.20176822,-1.44469541
35.825858932,1057,1074,2.60402992,-0.20167822,-1.44471211
35.841185960,1057,1074,2.60365287,-0.20130736,-1.44368911
35.855867811,1057,1074,2.60253006,-0.20126403,-1.44401919
35.878878049,1058,1075,2.60114580,-0.20149260,-1.44442485
35.909183380,1059,1076,2.59985328,-0.20130050,-1.44486511
35.916351948,1060,1077,2.59930188,-0.20105730,-1.44468722
35.938749714,1060,1077,2.59884123,-0.20129730,-1.44465660
35.961166395,1061,1078,2.59834823,-0.20173253,-1.44465428
35.976552411,1061,1078,2.59789709,-0.20195313,-1.44552962
36.000332553,1062,1079,2.59744902,-0.20210605,-1.44579140
36.021610785,1063,1080,2.59706326,-0.20230185,-1.44586791
36.036332180,1063,1080,2.59677373,-0.20247938,-1.44560621
36.058699605,1064,1081,2.59646437,-0.20276509,-1.44566557
36.081505897,1064,1081,2.59577394,-0.20238927,-1.44568994
36.096743670,1065,1082,2.59514538,-0.20170064,-1.44590291
36.118489393,1065,1082,2.59512769,-0.20137581,-1.44635293
36.148694334,1066,1083,2.59517779,-0.20150532,-1.44587475
36.157626662,1067,1084,2.59497191,-0.20106747,-1.44462297
36.179152061,1067,1084,2.59434375,-0.20037863,-1.44483669
36.202400821,1068,1085,2.59435576,-0.19936921,-1.44575712
36.222129467,1069,1086,2.59453414,-0.19950055,-1.44655234
36.246314822,1069,1086,2.59508402,-0.20052319,-1.44659547
36.261811063,1070,1087,2.59606176,-0.20205900,-1.44681390
36.282178150,1070,1087,2.59736182,-0.20322148,-1.44726742
36.298852531,1071,1088,2.59826364,-0.20432067,-1.44751024
36.321109628,1071,1088,2.59835504,-0.20481362,-1.44728873
36.342178752,1072,1089,2.59829015,-0.20597431,-1.44758209
36.363086750,1073,1090,2.59783105,-0.20670492,-1.44705234
36.381361280,1073,1090,2.59833747,-0.20724015,-1.44659835
36.409518526,1074,1091,2.59893474,-0.20847033,-1.44641254
36.419632167,1074,1091,2.59931785,-0.20941046,-1.44583172
36.441552165,1075,1092,2.59911577,-0.21015891,-1.44559260
36.462619985,1076,1093,2.59852817,-0.21095888,-1.44592200
36.478533099,1076,1093,2.59783883,-0.21099526,-1.44520006
36.501109667,1077,1094,2.59691616,-0.21106128,-1.44452402
36.522304443,1078,1095,2.59619595,-0.21093641,-1.44420400
36.547251339,1078,1095,2.59573360,-0.21104221,-1.44429536
36.561616116,1079,1096,2.59554543,-0.21190570,-1.44483702
36.581914951,1079,1096,2.59576995,-0.21331375,-1.44563226
36.599955551,1080,1097,2.59628725,-0.21502164,-1.44520929
36.627242102,1081,1098,2.59703165,-0.21727757,-1.44411875
36.649574513,1081,1098,2.59759012,-0.21891439,-1.44272915
36.659783070,1082,1099,2.59750777,-0.22031788,-1.44321817
36.681203326,1082,1099,2.59679750,-0.22059550,-1.44268890
36.704402101,1083,1100,2.59600533,-0.22078028,-1.44082153
36.719619166,1083,1100,2.59501482,-0.22086641,-1.43958540
36.748577747,1084,1101,2.59434006,-0.22053625,-1.43977246
36.763872630,1085,1102,2.59372171,-0.22073760,-1.43927480
36.781355854,1085,1102,2.59354864,-0.22107713,-1.43888413
36.801667045,1086,1103,2.59307728,-0.22181401,-1.43797777
36.824903378,1087,1104,2.59297970,-0.22237662,-1.43744543
36.838916799,1087,1104,2.59257186,-0.22287936,-1.43697317
36.861410778,1088,1105,2.59242663,-0.22316586,-1.43605957
36.883781194,1088,1105,2.59209381,-0.22389152,-1.43544541
36.904820827,1089,1106,2.59196362,-0.22422540,-1.43470011
36.921915716,1089,1106,2.59145289,-0.22431910,-1.43415733
36.943794676,1090,1107,2.59111695,-0.22533565,-1.43390634
36.959949453,1091,1108,2.58976387,-0.22844273,-1.43418078
36.981695812,1091,1108,2.58633495,-0.23443438,-1.43332635
37.003929543,1092,1109,2.58190505,-0.24198369,-1.43256980
37.025299652,1093,1110,2.57868565,-0.25285972,-1.43250773
37.041546670,1093,1110,2.57634957,-0.26549361,-1.43264969
37.063897064,1094,1111,2.57531913,-0.27684384,-1.43489960
37.084704304,1094,1111,2.57336447,-0.28710786,-1.43812907
37.101848714,1095,1112,2.57126784,-0.29396045,-1.43989515
37.123620247,1096,1113,2.56861045,-0.29913944,-1.44033570
37.144533658,1096,1113,2.56538760,-0.30077840,-1.44056327
37.161640729,1097,1114,2.55987055,-0.30459955,-1.43762143
37.191419660,1098,1115,2.55090496,-0.30718552,-1.42768543
37.204742725,1098,1115,2.54381685,-0.30559083,-1.42356640
37.221373103,1098,1115,2.54354996,-0.30187858,-1.43054343
37.243584459,1099,1116,2.54429423,-0.29836801,-1.43470592
37.264610450,1100,1117,2.54324062,-0.29581080,-1.43734812
37.281238136,1100,1117,2.53948453,-0.29853665,-1.44022381
37.303516871,1101,1118,2.53551467,-0.30606143,-1.44105870
37.324308344,1102,1119,2.53281648,-0.31144282,-1.44223343
37.341333546,1102,1119,2.53252885,-0.31261311,-1.44244413
37.364384142,1103,1120,2.53325698,-0.31481284,-1.44177103
37.385339181,1103,1121,2.53193687,-0.32172140,-1.44277706
37.408802936,1104,1122,2.52978714,-0.33192227,-1.44245766
37.423937741,1104,1122,2.52799235,-0.33825275,-1.44234614
37.444725737,1105,1123,2.52683925,-0.34168888,-1.44366302
37.461372947,1106,1124,2.52728716,-0.34231334,-1.44115880
37.483586727,1106,1124,2.52829776,-0.34151009,-1.43363313
37.521658856,1107,1125,2.52994056,-0.33967683,-1.42757947
37.524895199,1108,1126,2.53071049,-0.33982934,-1.42465093
37.543757431,1108,1126,2.52710392,-0.34086413,-1.41617837
37.564538807,1109,1127,2.52594690,-0.34119400,-1.41281405
37.581615687,1109,1127,2.52876892,-0.34336899,-1.40999222
37.603441901,1110,1128,2.53130237,-0.34960997,-1.40404162
37.631870743,1111,1129,2.53004155,-0.35419591,-1.39511486
37.640991839,1111,1129,2.52855495,-0.35615062,-1.38975150
37.663520683,1112,1130,2.52767551,-0.35719126,-1.39078384
37.693697915,1112,1130,2.52764145,-0.35642548,-1.39443291
37.701534085,1113,1131,2.52855409,-0.35466305,-1.39621682
37.723609029,1113,1131,2.53023565,-0.35335967,-1.39689826
37.747423762,1114,1132,2.53120783,-0.35306675,-1.39737815
37.761687864,1114,1132,2.53193473,-0.35343160,-1.39850857
37.783902560,1115,1133,2.53241653,-0.35481403,-1.39999050
37.806280497,1116,1134,2.53371140,-0.35628648,-1.40105912
37.821352477,1116,1134,2.53562336,-0.35745468,-1.40263230
37.843665521,1117,1135,2.53749802,-0.35790120,-1.40397513
37.873440355,1118,1136,2.53792467,-0.35885130,-1.40366079
37.882211398,1118,1136,2.53804650,-0.35955637,-1.40327556
37.903923166,1119,1137,2.53849085,-0.35974630,-1.40348642
37.925922022,1119,1137,2.53825141,-0.36023137,-1.40300578
37.941732595,1120,1138,2.53821824,-0.36103071,-1.40255456
37.963892312,1121,1139,2.53831978,-0.36192192,-1.40182811
37.986405823,1121,1139,2.53807960,-0.36275118,-1.40178174
38.001072154,1122,1140,2.53759565,-0.36276054,-1.40158743
38.023549920,1122,1140,2.53704564,-0.36383560,-1.40148861
38.048967167,1123,1141,2.53629994,-0.36543376,-1.40071998
38.076393382,1124,1142,2.53580702,-0.36721355,-1.40049336
38.084484043,1124,1142,2.53559765,-0.36721872,-1.40118351
38.114122020,1125,1143,2.53561763,-0.36609702,-1.40017470
38.135103217,1126,1144,2.53519367,-0.36702429,-1.39996831
38.145112295,1126,1144,2.53473806,-0.36728238,-1.39895865
38.166902560,1127,1145,2.53473159,-0.36781370,-1.39795696
38.187349411,1127,1145,2.53452164,-0.36873816,-1.39889592
38.203665186,1128,1146,2.53504958,-0.37011258,-1.39754748
38.233911573,1129,1147,2.53586194,-0.37193707,-1.39703127
38.249552648,1129,1147,2.53685433,-0.37290783,-1.39711180
38.263832670,1130,1148,2.53701050,-0.37262543,-1.39677841
38.286397614,1130,1148,2.53665979,-0.37307036,-1.39674129
38.306756065,1131,1149,2.53640356,-0.37216618,-1.39495967
38.323478627,1131,1149,2.53672544,-0.37047028,-1.39576619
38.347557492,1132,1150,2.53677500,-0.36950026,-1.39875846
38.369381870,1133,1151,2.53657281,-0.36468273,-1.40065469
38.383802538,1133,1151,2.53700431,-0.35833565,-1.40327197
38.407070870,1134,1152,2.53602273,-0.35164328,-1.40790976
38.427033400,1134,1152,2.53241930,-0.34280742,-1.40961221
38.445140899,1135,1153,2.52864154,-0.33332866,-1.40803970
38.466185869,1136,1154,2.52601684,-0.32761390,-1.40620706
38.488336555,1136,1154,2.52498195,-0.32186995,-1.40295626
38.505199410,1137,1155,2.52460158,-0.31443184,-1.40195217
38.527250156,1137,1155,2.52179685,-0.30871686,-1.40085870
38.547491118,1138,1156,2.51940480,-0.30063347,-1.39889875
38.579940503,1139,1157,2.51900258,-0.29365796,-1.39968445
38.593401649,1139,1157,2.51886478,-0.28882904,-1.40108394
38.610670897,1140,1158,2.51691725,-0.28451231,-1.40081630
38.624098668,1140,1158,2.51467713,-0.27784962,-1.40019512
38.646132912,1141,1159,2.51331584,-0.27080695,-1.40086391
38.668554129,1142,1160,2.51160856,-0.26420957,-1.40151918
38.684647206,1142,1160,2.51019196,-0.26004744,-1.40196048
38.709334610,1143,1161,2.50982151,-0.25602417,-1.40096811
38.728555433,1143,1161,2.51373752,-0.25560390,-1.40171798
38.744511264,1144,1162,2.51981887,-0.25304594,-1.40771194
38.767274403,1145,1163,2.52478704,-0.25009319,-1.41090171
38.789245952,1145,1163,2.52454666,-0.25016371,-1.41056856
38.811095803,1146,1164,2.52330178,-0.24995062,-1.41063314
38.825870200,1146,1164,2.52406291,-0.24804070,-1.41356574
38.856032320,1147,1165,2.52446582,-0.24630623,-1.41620093
38.863424570,1147,1165,2.52372172,-0.24570396,-1.41674680
38.886256471,1148,1166,2.52256084,-0.24454156,-1.41668205
38.908853032,1149,1167,2.52140532,-0.24377271,-1.41758574
38.924347829,1149,1167,2.52057068,-0.24241072,-1.42010456
38.946390061,1150,1168,2.52000805,-0.24096412,-1.42141180
38.970227905,1151,1169,2.52000009,-0.23955760,-1.42278683
38.983509899,1151,1169,2.51945166,-0.23868917,-1.42390884
39.006396866,1152,1170,2.51918551,-0.23791241,-1.42467389
39.034388106,1153,1171,2.51885682,-0.23792726,-1.42562579
39.050524265,1153,1171,2.51882109,-0.23790818,-1.42553299
39.066367955,1154,1172,2.51884072,-0.23787347,-1.42545881
39.088478246,1154,1172,2.51809778,-0.23785139,-1.42545001
39.109835159,1155,1173,2.51771205,-0.23774214,-1.42515811
39.134348517,1156,1174,2.51734859,-0.23786610,-1.42588762
39.148563502,1156,1174,2.51740559,-0.23777487,-1.42583061
39.170852221,1157,1175,2.51716666,-0.23818959,-1.42548112
39.185734317,1157,1175,2.51662097,-0.23842057,-1.42450308
39.210735363,1158,1176,2.51567679,-0.23888342,-1.42403156
39.229515734,1158,1176,2.51501697,-0.23842950,-1.42353927
39.246323055,1159,1177,2.51442875,-0.23849983,-1.42443916
39.269071141,1160,1178,2.51400168,-0.23880323,-1.42427670
39.289337498,1160,1178,2.51385721,-0.23919684,-1.42375675
39.306441046,1161,1179,2.51393122,-0.23928706,-1.42373691
39.329268145,1161,1179,2.51399981,-0.23980995,-1.42393926
39.350083787,1162,1180,2.51399981,-0.23980995,-1.42393926
39.366328131,1162,1180,2.51399981,-0.23980995,-1.42393926
39.389233793,1163,1181,2.51394562,-0.23968478,-1.42388506
39.410367041,1164,1182,2.51400251,-0.23959362,-1.42382816
39.427455101,1164,1182,2.51338668,-0.24025699,-1.42370434
39.448771479,1165,1183,2.51290292,-0.23969385,-1.42254090
39.470506133,1166,1184,2.51270008,-0.23926101,-1.42265652
39.486249625,1166,1184,2.51207350,-0.24031916,-1.42312473
39.510605418,1167,1185,2.51171396,-0.24026262,-1.42218231
39.531534695,1167,1185,2.51092237,-0.24007597,-1.42167223
39.546889619,1168,1186,2.51006293,-0.24129236,-1.42123037
39.569690232,1169,1187,2.50937815,-0.24042071,-1.42005403
39.592695153,1169,1187,2.50852178,-0.24050344,-1.42008183
39.606248269,1170,1188,2.50783267,-0.24125293,-1.41963958
39.630036689,1170,1188,2.50739784,-0.24085007,-1.41897763
39.651093690,1171,1189,2.50695305,-0.24223520,-1.41936450
39.666721922,1171,1189,2.50656675,-0.24150588,-1.41799838
39.688607768,1172,1190,2.50629954,-0.24186527,-1.41829643
39.711537770,1173,1191,2.50573060,-0.24274229,-1.41846269
39.726274342,1173,1191,2.50553710,-0.24270085,-1.41753627
39.749466799,1174,1192,2.50510999,-0.24449602,-1.41741456
39.771007896,1175,1193,2.50506216,-0.24450863,-1.41657764
39.786028343,1175,1193,2.50496896,-0.24457995,-1.41654115
39.808889573,1176,1194,2.50509289,-0.24513930,-1.41655411
39.831410829,1176,1194,2.50551795,-0.24575330,-1.41613624
39.847309175,1177,1195,2.50551795,-0.24575330,-1.41613624
39.870917935,1178,1196,2.50564400,-0.24579193,-1.41650629
39.891039262,1178,1196,2.50558032,-0.24618986,-1.41691339
39.906478772,1179,1197,2.50544401,-0.24667509,-1.41700377
39.936693054,1179,1197,2.50525458,-0.24708587,-1.41683403
39.951296677,1180,1198,2.50496536,-0.24698889,-1.41600036
39.966989877,1180,1198,2.50456872,-0.24752611,-1.41603730
39.988492924,1181,1199,2.50404901,-0.24785899,-1.41538707
40.011067476,1182,1200,2.50404901,-0.24785899,-1.41538707
40.032178244,1182,1200,2.50373248,-0.24823046,-1.41484648
40.048511286,1183,1201,2.50347247,-0.24845969,-1.41445601
40.070987798,1184,1202,2.50307859,-0.24865377,-1.41451270
40.093002654,1184,1202,2.50308840,-0.24914258,-1.41489911
40.109057778,1185,1203,2.50317849,-0.24959166,-1.41457814
40.131275447,1185,1203,2.50327190,-0.24952055,-1.41461494
40.152053275,1186,1204,2.50294820,-0.24984461,-1.41509839
40.168754909,1186,1204,2.50288789,-0.25050683,-1.41459015
40.191975706,1187,1205,2.50291105,-0.25043173,-1.41406962
40.211863412,1188,1206,2.50292110,-0.25092054,-1.41445606
40.228478898,1188,1206,2.50281086,-0.25081053,-1.41438272
40.250890856,1189,1207,2.50281086,-0.25081053,-1.41438272
40.271724852,1189,1207,2.50281086,-0.25081053,-1.41438272
40.289651160,1190,1208,2.50279410,-0.25075531,-1.41421591
40.311301417,1191,1209,2.50279410,-0.25075531,-1.41421591
40.331851288,1191,1209,2.50275722,-0.25073581,-1.41412245
40.349025829,1192,1210,2.50277735,-0.25070009,-1.41404911
40.371424204,1192,1210,2.50277735,-0.25070009,-1.41404911
40.391904618,1193,1211,2.50243657,-0.25114627,-1.41402809
40.409169551,1194,1212,2.50243657,-0.25114627,-1.41402809
40.431426651,1194,1212,2.50215615,-0.25123355,-1.41404773
40.451763417,1195,1213,2.50202513,-0.25158815,-1.41344941
40.468694320,1195,1213,2.50202513,-0.25158815,-1.41344941
40.491554762,1196,1214,2.50202513,-0.25158815,-1.41344941
40.514540416,1197,1215,2.50191211,-0.25151764,-1.41382330
40.536351238,1197,1215,2.50180185,-0.25140757,-1.41374997
40.551274552,1198,1216,2.50182201,-0.25137179,-1.41367666
40.573907371,1198,1216,2.50185423,-0.25196271,-1.41320474
40.588920220,1199,1217,2.50213382,-0.25217863,-1.41271729
40.611199129,1200,1218,2.50218435,-0.25234449,-1.41321775
40.634137029,1200,1218,2.50220040,-0.25257713,-1.41304700
40.649027914,1201,1219,2.50239998,-0.25301043,-1.41292961
40.671437770,1201,1219,2.50284042,-0.25350226,-1.41301642
40.694050188,1202,1220,2.50280341,-0.25348285,-1.41292283
40.708731460,1203,1221,2.50282347,-0.25344702,-1.41284954
40.731445082,1203,1221,2.50278646,-0.25342761,-1.41275595
40.754095466,1204,1222,2.50280652,-0.25339178,-1.41268267
40.768810042,1204,1222,2.50276952,-0.25337236,-1.41258908
40.798869068,1205,1223,2.50269839,-0.25336816,-1.41203141
40.813703694,1206,1224,2.50261828,-0.25371110,-1.41227105
40.828863037,1206,1224,2.50276364,-0.25406984,-1.41189328
40.851175788,1207,1225,2.50294898,-0.25435697,-1.41136906
40.874434535,1207,1225,2.50292371,-0.25491278,-1.41108409
40.888749787,1208,1226,2.50301741,-0.25484194,-1.41112114
40.911996548,1209,1227,2.50294420,-0.25475127,-1.41114118
40.933773546,1209,1227,2.50294420,-0.25475127,-1.41114118
40.954578858,1210,1228,2.50294420,-0.25475127,-1.41114118
40.971109842,1210,1228,2.50281480,-0.25462519,-1.41134815
40.993685529,1211,1229,2.50260570,-0.25471640,-1.41192507
41.016676646,1212,1230,2.50244050,-0.25478294,-1.41133021
41.031450465,1212,1230,2.50240343,-0.25476353,-1.41123653
41.053819366,1213,1231,2.50215345,-0.25517784,-1.41169914
41.074585084,1213,1231,2.50175571,-0.25558838,-1.41186395
41.098430810,1214,1232,2.50175571,-0.25558838,-1.41186395
41.127705788,1215,1233,2.50164155,-0.25582068,-1.41176960
41.135353402,1215,1233,2.50160439,-0.25580128,-1.41167590
41.151466558,1216,1234,2.50143250,-0.25617563,-1.41143057
41.173605145,1216,1234,2.50120561,-0.25660059,-1.41079408
41.194377496,1217,1235,2.50080921,-0.25697146,-1.41051074
41.211720067,1218,1236,2.50050782,-0.25721968,-1.41047211
41.233514124,1218,1236,2.50008638,-0.25809402,-1.41011007
41.262215109,1219,1237,2.49999838,-0.25900832,-1.40978223
41.272736332,1219,1237,2.49986029,-0.25949334,-1.40987001
41.294850700,1220,1238,2.49975377,-0.26030631,-1.41040116
41.314340255,1221,1239,2.49972377,-0.26107860,-1.41022439
41.330937559,1221,1239,2.49982553,-0.26171409,-1.41075751
41.353768913,1222,1240,2.49992459,-0.26256635,-1.41140035
41.374355057,1222,1240,2.49993635,-0.26301600,-1.41133865
41.392685501,1223,1241,2.50028956,-0.26310538,-1.41072237
41.414132564,1224,1242,2.50100329,-0.26403575,-1.41125292
41.436053035,1224,1242,2.50191651,-0.26539918,-1.41166779
41.461031391,1225,1243,2.50231583,-0.26618010,-1.41201376
41.473832850,1225,1243,2.50178404,-0.26685919,-1.41215471
41.496114124,1226,1244,2.50070437,-0.26666152,-1.41140994
41.517565530,1227,1245,2.49950372,-0.26692477,-1.41002354
41.524280946,1227,1245,2.49874951,-0.26741641,-1.40964348
41.547395346,1228,1246,2.49786785,-0.26764985,-1.40878143
41.570039449,1228,1246,2.49688160,-0.26733863,-1.40762646
41.584699601,1229,1247,2.49595943,-0.26763546,-1.40609094
41.607452574,1229,1247,2.49522421,-0.26792355,-1.40531915
41.629928433,1230,1248,2.49471751,-0.26817112,-1.40561409
41.645125863,1230,1248,2.49471751,-0.26817112,-1.40561409
41.667067641,1231,1249,2.49470095,-0.26799072,-1.40557792
41.690207270,1232,1250,2.49442796,-0.26865089,-1.40540037
41.705777374,1232,1250,2.49450073,-0.26874177,-1.40538032
41.735591454,1233,1251,2.49440997,-0.26859486,-1.40523334
41.750597535,1234,1252,2.49440997,-0.26859486,-1.40523334
41.765011224,1234,1252,2.49430733,-0.26905862,-1.40496471
41.786945599,1235,1253,2.49444631,-0.26954132,-1.40445422
41.810145626,1235,1253,2.49440308,-0.26986334,-1.40433796
41.824715732,1236,1254,2.49450686,-0.27024294,-1.40431248
41.854981710,1237,1255,2.49413134,-0.27026566,-1.40360255
41.869342879,1237,1255,2.49384262,-0.27062091,-1.40351902
41.892591899,1238,1256,2.49355037,-0.27122452,-1.40317356
41.907537224,1238,1256,2.49355401,-0.27100744,-1.40306474
41.930178748,1239,1257,2.49370114,-0.27122995,-1.40347324
41.952680637,1240,1258,2.49339960,-0.27121905,-1.40287387
41.966884759,1240,1258,2.49330517,-0.27128902,-1.40283566
41.990100098,1241,1259,2.49312885,-0.27166153,-1.40258643
42.012818809,1241,1259,2.49356124,-0.27144777,-1.40218163
42.026762896,1242,1260,2.49356124,-0.27144777,-1.40218163
42.050006987,1242,1260,2.49366082,-0.27204460,-1.40226469
42.076974836,1243,1261,2.49366082,-0.27204460,-1.40226469
42.087070301,1244,1262,2.49374800,-0.27240878,-1.40252059
42.109624847,1244,1262,2.49358614,-0.27305449,-1.40254723
42.132673878,1245,1263,2.49336402,-0.27384186,-1.40242091
42.146937636,1245,1263,2.49300409,-0.27476322,-1.40158160
42.169681749,1246,1264,2.49270878,-0.27545944,-1.40147467
42.192884288,1247,1265,2.49273717,-0.27587221,-1.40133786
42.207254657,1247,1265,2.49273717,-0.27587221,-1.40133786
42.229851934,1248,1266,2.49269811,-0.27611066,-1.40180092
42.252897467,1249,1267,2.49326317,-0.27682330,-1.40192334
42.268679918,1249,1267,2.49405078,-0.27749891,-1.40163792
42.289615083,1250,1268,2.49465615,-0.27845685,-1.40278495
42.312630691,1250,1268,2.49505161,-0.27936486,-1.40299915
42.326865996,1251,1269,2.49605767,-0.27996388,-1.40185798
42.349781494,1251,1269,2.49763501,-0.28126269,-1.40342361
42.374702067,1252,1270,2.49920356,-0.28269789,-1.40420272
42.386812867,1253,1271,2.50042407,-0.28416555,-1.40546809
42.410591375,1253,1271,2.50161076,-0.28511586,-1.40773268
42.435469816,1254,1272,2.50281644,-0.28640484,-1.40704103
42.447118986,1254,1272,2.50442976,-0.28740939,-1.40880715
42.469454372,1255,1273,2.50661535,-0.28829939,-1.41254961
42.492648793,1256,1274,2.50929908,-0.29018603,-1.41356267
42.507099728,1256,1274,2.51245119,-0.29333730,-1.41652968
42.529599602,1257,1275,2.51703360,-0.29616643,-1.42013335
42.552470740,1257,1275,2.52126448,-0.29718420,-1.42153449
42.570253446,1258,1276,2.52413746,-0.29633074,-1.42386693
42.589692999,1258,1276,2.52500978,-0.29707026,-1.42468920
42.612624721,1259,1277,2.52467467,-0.29853641,-1.42204659
42.627030846,1260,1278,2.52399365,-0.30158305,-1.41973574
42.649689911,1260,1278,2.52075454,-0.30268008,-1.41843430
42.673109884,1261,1279,2.51587487,-0.30200966,-1.41880655
42.687666477,1262,1280,2.51255265,-0.30151537,-1.41930538
42.710051284,1262,1280,2.51088711,-0.30172828,-1.41572915
42.744737039,1263,1281,2.50913686,-0.30096195,-1.41200756
42.748773690,1263,1281,2.50910860,-0.29989055,-1.41475020
42.771392954,1264,1282,2.50937724,-0.30196915,-1.41629710
42.793088211,1265,1283,2.50829840,-0.30472222,-1.41370678
42.807494290,1265,1283,2.50706963,-0.30567302,-1.41123417
42.830113995,1266,1284,2.50708152,-0.30671027,-1.40987621
42.853480137,1266,1284,2.50563204,-0.30997725,-1.40776835
42.867736368,1267,1285,2.50246265,-0.31223543,-1.40411879
42.890026665,1268,1286,2.50102180,-0.31249546,-1.40302724
